timestamp,green,ir,red
1631192845203,31424,243306,202371
1631192845213,31415,243349,202352
1631192845223,31422,243355,202353
1631192845233,31430,243365,202346
1631192845243,31435,243368,202367
1631192845253,31443,243405,202368
1631192845263,31448,243431,202382
1631192845273,31445,243384,202357
1631192845283,31454,243402,202376
1631192845293,31466,243439,202382
1631192845303,31466,243468,202397
1631192845313,31468,243461,202388
1631192845323,31469,243483,202389
1631192845333,31479,243476,202376
1631192845343,31488,243484,202409
1631192845353,31498,243528,202402
1631192845363,31509,243576,202427
1631192845373,31508,243531,202399
1631192845383,31509,243547,202415
1631192845393,31515,243561,202421
1631192845403,31523,243597,202425
1631192845413,31526,243609,202423
1631192845423,31536,243607,202427
1631192845433,31539,243641,202428
1631192845443,31554,243672,202422
1631192845453,31550,243659,202449
1631192845463,31560,243672,202452
1631192845473,31564,243661,202437
1631192845483,31572,243720,202463
1631192845493,31577,243724,202438
1631192845503,31585,243767,202450
1631192845513,31590,243770,202449
1631192845523,31598,243796,202467
1631192845533,31608,243783,202448
1631192845543,31613,243798,202484
1631192845553,31616,243840,202469
1631192845563,31626,243842,202498
1631192845573,31628,243888,202481
1631192845583,31639,243858,202514
1631192845593,31650,243900,202493
1631192845603,31654,243886,202513
1631192845613,31659,243929,202501
1631192845623,31664,243931,202510
1631192845633,31663,243895,202518
1631192845643,31656,243830,202493
1631192845653,31639,243820,202477
1631192845663,31633,243766,202472
1631192845673,31590,243695,202467
1631192845683,31572,243652,202451
1631192845693,31543,243591,202428
1631192845703,31520,243555,202426
1631192845713,31496,243532,202420
1631192845723,31471,243523,202406
1631192845733,31452,243484,202402
1631192845743,31436,243495,202396
1631192845753,31429,243458,202409
1631192845763,31408,243454,202370
1631192845773,31409,243450,202379
1631192845783,31395,243429,202374
1631192845793,31388,243377,202371
1631192845803,31383,243362,202360
1631192845813,31374,243355,202333
1631192845823,31368,243340,202340
1631192845833,31367,243367,202341
1631192845843,31350,243352,202325
1631192845853,31347,243324,202340
1631192845863,31350,243329,202331
1631192845873,31335,243311,202342
1631192845883,31340,243317,202333
1631192845893,31339,243333,202333
1631192845903,31332,243301,202316
1631192845913,31333,243316,202342
1631192845923,31332,243319,202327
1631192845933,31329,243312,202328
1631192845943,31326,243287,202307
1631192845953,31321,243309,202325
1631192845963,31318,243293,202328
1631192845973,31320,243300,202319
1631192845983,31315,243299,202288
1631192845993,31314,243282,202310
1631192846003,31325,243315,202316
1631192846013,31326,243290,202320
1631192846023,31326,243326,202315
1631192846033,31321,243316,202316
1631192846043,31334,243317,202298
1631192846053,31326,243360,202321
1631192846063,31329,243331,202330
1631192846073,31328,243358,202325
1631192846083,31341,243330,202324
1631192846093,31341,243375,202316
1631192846103,31342,243402,202333
1631192846113,31347,243389,202321
1631192846123,31363,243393,202329
1631192846133,31360,243404,202329
1631192846143,31363,243400,202341
1631192846153,31379,243473,202341
1631192846163,31374,243449,202341
1631192846173,31377,243456,202347
1631192846183,31396,243450,202332
1631192846193,31402,243496,202352
1631192846203,31408,243504,202388
1631192846213,31406,243533,202363
1631192846223,31415,243536,202377
1631192846233,31419,243556,202371
1631192846243,31426,243563,202370
1631192846253,31434,243584,202381
1631192846263,31439,243595,202392
1631192846273,31448,243625,202412
1631192846283,31454,243624,202385
1631192846293,31458,243614,202411
1631192846303,31466,243648,202397
1631192846313,31475,243720,202422
1631192846323,31484,243659,202413
1631192846333,31490,243665,202413
1631192846343,31492,243684,202422
1631192846353,31501,243741,202443
1631192846363,31501,243732,202434
1631192846373,31517,243756,202442
1631192846383,31523,243776,202437
1631192846393,31530,243806,202451
1631192846403,31537,243821,202467
1631192846413,31541,243827,202434
1631192846423,31547,243836,202472
1631192846433,31549,243864,202466
1631192846443,31561,243856,202466
1631192846453,31566,243883,202460
1631192846463,31575,243905,202479
1631192846473,31574,243915,202485
1631192846483,31596,243924,202468
1631192846493,31599,243956,202486
1631192846503,31607,243975,202493
1631192846513,31604,244010,202511
1631192846523,31619,244016,202510
1631192846533,31628,244041,202508
1631192846543,31629,244068,202519
1631192846553,31643,244056,202527
1631192846563,31651,244079,202515
1631192846573,31660,244102,202523
1631192846583,31668,244105,202558
1631192846593,31671,244147,202550
1631192846603,31681,244131,202523
1631192846613,31680,244144,202534
1631192846623,31681,244076,202522
1631192846633,31665,244002,202510
1631192846643,31661,243972,202504
1631192846653,31641,243952,202501
1631192846663,31616,243896,202472
1631192846673,31582,243817,202458
1631192846683,31558,243804,202452
1631192846693,31535,243778,202455
1631192846703,31516,243742,202440
1631192846713,31500,243704,202425
1631192846723,31480,243673,202415
1631192846733,31471,243636,202409
1631192846743,31463,243668,202406
1631192846753,31453,243632,202408
1631192846763,31450,243617,202370
1631192846773,31435,243631,202360
1631192846783,31430,243597,202391
1631192846793,31431,243554,202381
1631192846803,31428,243545,202364
1631192846813,31430,243564,202357
1631192846823,31409,243544,202361
1631192846833,31406,243546,202346
1631192846843,31405,243527,202337
1631192846853,31408,243539,202357
1631192846863,31407,243564,202342
1631192846873,31411,243516,202322
1631192846883,31415,243521,202315
1631192846893,31405,243528,202343
1631192846903,31404,243500,202342
1631192846913,31400,243509,202348
1631192846923,31396,243479,202346
1631192846933,31396,243504,202320
1631192846943,31390,243463,202310
1631192846953,31391,243461,202329
1631192846963,31388,243466,202350
1631192846973,31388,243499,202324
1631192846983,31387,243477,202341
1631192846993,31390,243440,202330
1631192847003,31384,243466,202304
1631192847013,31395,243435,202317
1631192847023,31401,243469,202322
1631192847033,31400,243519,202317
1631192847043,31399,243487,202306
1631192847053,31410,243498,202320
1631192847063,31414,243467,202314
1631192847073,31411,243501,202319
1631192847083,31419,243476,202338
1631192847093,31418,243532,202334
1631192847103,31426,243521,202285
1631192847113,31429,243530,202338
1631192847123,31435,243522,202332
1631192847133,31437,243524,202312
1631192847143,31449,243534,202347
1631192847153,31454,243545,202327
1631192847163,31446,243532,202325
1631192847173,31463,243575,202331
1631192847183,31468,243582,202335
1631192847193,31473,243594,202343
1631192847203,31478,243603,202323
1631192847213,31487,243612,202334
1631192847223,31493,243612,202327
1631192847233,31494,243621,202343
1631192847243,31502,243651,202352
1631192847253,31506,243643,202355
1631192847263,31513,243676,202367
1631192847273,31520,243642,202352
1631192847283,31527,243668,202364
1631192847293,31531,243704,202321
1631192847303,31548,243708,202358
1631192847313,31549,243713,202377
1631192847323,31553,243723,202358
1631192847333,31558,243706,202363
1631192847343,31568,243720,202370
1631192847353,31563,243734,202398
1631192847363,31575,243731,202353
1631192847373,31580,243737,202368
1631192847383,31585,243751,202381
1631192847393,31586,243783,202360
1631192847403,31593,243787,202365
1631192847413,31600,243768,202380
1631192847423,31603,243825,202379
1631192847433,31610,243807,202390
1631192847443,31618,243833,202385
1631192847453,31626,243824,202400
1631192847463,31633,243856,202380
1631192847473,31639,243856,202391
1631192847483,31650,243847,202399
1631192847493,31653,243893,202391
1631192847503,31653,243891,202407
1631192847513,31659,243884,202409
1631192847523,31658,243817,202370
1631192847533,31647,243785,202373
1631192847543,31626,243706,202366
1631192847553,31599,243636,202345
1631192847563,31574,243590,202344
1631192847573,31546,243563,202342
1631192847583,31528,243507,202308
1631192847593,31515,243475,202314
1631192847603,31498,243426,202303
1631192847613,31477,243431,202281
1631192847623,31459,243409,202302
1631192847633,31456,243388,202237
1631192847643,31437,243348,202257
1631192847653,31433,243356,202232
1631192847663,31421,243373,202251
1631192847673,31417,243306,202261
1631192847683,31416,243306,202251
1631192847693,31406,243288,202227
1631192847703,31404,243254,202232
1631192847713,31391,243278,202227
1631192847723,31389,243237,202222
1631192847733,31381,243230,202208
1631192847743,31376,243196,202224
1631192847753,31376,243215,202224
1631192847763,31375,243227,202197
1631192847773,31379,243204,202220
1631192847783,31371,243237,202218
1631192847793,31375,243227,202199
1631192847803,31371,243184,202197
1631192847813,31374,243241,202190
1631192847823,31369,243190,202191
1631192847833,31365,243189,202194
1631192847843,31365,243175,202193
1631192847853,31365,243167,202206
1631192847863,31365,243168,202190
1631192847873,31359,243176,202187
1631192847883,31360,243163,202213
1631192847893,31366,243180,202192
1631192847903,31363,243166,202190
1631192847913,31365,243207,202227
1631192847923,31364,243196,202211
1631192847933,31367,243201,202213
1631192847943,31369,243232,202203
1631192847953,31385,243155,202208
1631192847963,31384,243195,202214
1631192847973,31380,243200,202238
1631192847983,31388,243248,202209
1631192847993,31405,243245,202198
1631192848003,31401,243269,202232
1631192848013,31397,243244,202235
1631192848023,31407,243226,202225
1631192848033,31412,243278,202217
1631192848043,31418,243290,202234
1631192848053,31424,243280,202240
1631192848063,31426,243298,202244
1631192848073,31434,243303,202235
1631192848083,31438,243315,202246
1631192848093,31449,243375,202276
1631192848103,31453,243386,202284
1631192848113,31469,243367,202280
1631192848123,31471,243388,202282
1631192848133,31472,243401,202263
1631192848143,31477,243405,202293
1631192848153,31482,243432,202286
1631192848163,31485,243454,202279
1631192848173,31487,243430,202288
1631192848183,31504,243423,202286
1631192848193,31503,243479,202269
1631192848203,31505,243512,202299
1631192848213,31507,243478,202277
1631192848223,31512,243481,202264
1631192848233,31513,243444,202249
1631192848243,31515,243498,202234
1631192848253,31520,243474,202229
1631192848263,31531,243484,202191
1631192848273,31527,243480,202212
1631192848283,31530,243517,202195
1631192848293,31534,243506,202169
1631192848303,31533,243497,202203
1631192848313,31534,243496,202155
1631192848323,31539,243475,202166
1631192848333,31540,243480,202137
1631192848343,31541,243443,202134
1631192848353,31539,243426,202115
1631192848363,31545,243468,202090
1631192848373,31552,243417,202065
1631192848383,31542,243438,202028
1631192848393,31558,243414,202036
1631192848403,31552,243345,201999
1631192848413,31548,243372,201961
1631192848423,31544,243334,201952
1631192848433,31540,243212,201880
1631192848443,31521,243139,201854
1631192848453,31497,243065,201800
1631192848463,31453,243009,201753
1631192848473,31413,242899,201674
1631192848483,31376,242842,201662
1631192848493,31338,242760,201606
1631192848503,31314,242746,201582
1631192848513,31290,242663,201577
1631192848523,31260,242683,201551
1631192848533,31239,242637,201549
1631192848543,31226,242650,201565
1631192848553,31215,242625,201544
1631192848563,31197,242577,201541
1631192848573,31185,242596,201509
1631192848583,31186,242571,201515
1631192848593,31162,242561,201511
1631192848603,31156,242530,201494
1631192848613,31134,242517,201466
1631192848623,31130,242467,201443
1631192848633,31116,242471,201433
1631192848643,31105,242449,201419
1631192848653,31084,242426,201393
1631192848663,31076,242412,201376
1631192848673,31071,242375,201336
1631192848683,31066,242383,201364
1631192848693,31061,242397,201337
1631192848703,31060,242373,201331
1631192848713,31065,242387,201327
1631192848723,31061,242360,201304
1631192848733,31059,242363,201315
1631192848743,31051,242329,201326
1631192848753,31060,242323,201295
1631192848763,31059,242351,201297
1631192848773,31059,242340,201310
1631192848783,31051,242329,201330
1631192848793,31052,242306,201329
1631192848803,31048,242330,201340
1631192848813,31049,242340,201316
1631192848823,31050,242339,201304
1631192848833,31054,242342,201301
1631192848843,31047,242354,201317
1631192848853,31050,242315,201317
1631192848863,31057,242310,201295
1631192848873,31056,242315,201307
1631192848883,31057,242316,201297
1631192848893,31056,242319,201290
1631192848903,31052,242329,201293
1631192848913,31067,242308,201288
1631192848923,31074,242336,201286
1631192848933,31083,242315,201300
1631192848943,31081,242333,201305
1631192848953,31088,242325,201311
1631192848963,31087,242389,201293
1631192848973,31100,242333,201296
1631192848983,31098,242386,201271
1631192848993,31094,242343,201272
1631192849003,31101,242331,201283
1631192849013,31100,242336,201275
1631192849023,31096,242362,201260
1631192849033,31102,242353,201224
1631192849043,31105,242354,201218
1631192849053,31106,242362,201201
1631192849063,31107,242368,201191
1631192849073,31113,242366,201178
1631192849083,31105,242348,201182
1631192849093,31104,242341,201154
1631192849103,31119,242339,201117
1631192849113,31123,242378,201133
1631192849123,31121,242365,201137
1631192849133,31130,242372,201104
1631192849143,31131,242383,201107
1631192849153,31134,242402,201095
1631192849163,31131,242343,201092
1631192849173,31138,242370,201095
1631192849183,31136,242414,201051
1631192849193,31147,242394,201051
1631192849203,31145,242396,201030
1631192849213,31147,242374,201021
1631192849223,31147,242387,201009
1631192849233,31147,242384,201017
1631192849243,31146,242418,200996
1631192849253,31156,242407,200974
1631192849263,31154,242391,200961
1631192849273,31157,242370,200932
1631192849283,31156,242425,200930
1631192849293,31161,242422,200944
1631192849303,31165,242412,200925
1631192849313,31169,242405,200916
1631192849323,31170,242423,200936
1631192849333,31174,242454,200936
1631192849343,31180,242478,200919
1631192849353,31187,242489,200940
1631192849363,31187,242487,200927
1631192849373,31193,242496,200918
1631192849383,31187,242460,200971
1631192849393,31167,242509,200984
1631192849403,31167,242495,200980
1631192849413,31156,242497,201020
1631192849423,31129,242477,201075
1631192849433,31110,242476,201085
1631192849443,31096,242495,201141
1631192849453,31081,242503,201171
1631192849463,31079,242496,201210
1631192849473,31064,242550,201265
1631192849483,31069,242575,201298
1631192849493,31065,242590,201310
1631192849503,31059,242581,201340
1631192849513,31058,242610,201372
1631192849523,31056,242587,201400
1631192849533,31059,242621,201403
1631192849543,31057,242613,201439
1631192849553,31051,242624,201457
1631192849563,31049,242604,201464
1631192849573,31052,242609,201482
1631192849583,31033,242605,201484
1631192849593,31035,242606,201463
1631192849603,31017,242553,201425
1631192849613,31031,242592,201438
1631192849623,31013,242546,201402
1631192849633,31000,242502,201355
1631192849643,30993,242416,201287
1631192849653,30966,242384,201230
1631192849663,30952,242324,201168
1631192849673,30933,242309,201069
1631192849683,30912,242220,200995
1631192849693,30896,242119,200946
1631192849703,30874,242068,200826
1631192849713,30847,241985,200742
1631192849723,30821,241939,200650
1631192849733,30804,241857,200540
1631192849743,30758,241823,200443
1631192849753,30743,241774,200318
1631192849763,30720,241722,200256
1631192849773,30691,241723,200192
1631192849783,30672,241672,200117
1631192849793,30646,241664,199999
1631192849803,30624,241635,199929
1631192849813,30601,241608,199851
1631192849823,30573,241568,199782
1631192849833,30556,241526,199694
1631192849843,30531,241510,199588
1631192849853,30500,241473,199437
1631192849863,30471,241454,199349
1631192849873,30459,241483,199241
1631192849883,30431,241464,199178
1631192849893,30437,241491,199140
1631192849903,30423,241479,199093
1631192849913,30425,241499,199078
1631192849923,30421,241536,199077
1631192849933,30414,241534,199010
1631192849943,30409,241553,198989
1631192849953,30406,241543,198940
1631192849963,30403,241552,198898
1631192849973,30398,241589,198861
1631192849983,30395,241571,198842
1631192849993,30404,241551,198829
1631192850003,30405,241569,198800
1631192850013,30407,241593,198797
1631192850023,30407,241596,198756
1631192850033,30406,241591,198751
1631192850043,30405,241592,198710
1631192850053,30421,241633,198724
1631192850063,30431,241642,198711
1631192850073,30421,241692,198702
1631192850083,30429,241701,198686
1631192850093,30442,241696,198691
1631192850103,30437,241731,198686
1631192850113,30449,241775,198684
1631192850123,30451,241770,198667
1631192850133,30463,241755,198689
1631192850143,30465,241810,198674
1631192850153,30470,241862,198675
1631192850163,30479,241851,198668
1631192850173,30487,241851,198692
1631192850183,30492,241866,198706
1631192850193,30496,241880,198703
1631192850203,30502,241918,198706
1631192850213,30534,241886,198708
1631192850223,30521,241910,198713
1631192850233,30537,241943,198753
1631192850243,30543,241999,198729
1631192850253,30546,241980,198747
1631192850263,30552,241957,198744
1631192850273,30556,241944,198738
1631192850283,30550,241959,198770
1631192850293,30553,241938,198746
1631192850303,30539,241958,198783
1631192850313,30519,241879,198772
1631192850323,30501,241858,198770
1631192850333,30479,241864,198752
1631192850343,30453,241835,198773
1631192850353,30437,241788,198757
1631192850363,30418,241794,198778
1631192850373,30405,241762,198761
1631192850383,30398,241747,198770
1631192850393,30380,241697,198770
1631192850403,30375,241724,198730
1631192850413,30363,241691,198716
1631192850423,30357,241685,198729
1631192850433,30353,241712,198740
1631192850443,30344,241668,198736
1631192850453,30341,241699,198715
1631192850463,30326,241606,198705
1631192850473,30325,241623,198717
1631192850483,30322,241641,198703
1631192850493,30317,241587,198701
1631192850503,30314,241619,198684
1631192850513,30315,241596,198692
1631192850523,30319,241609,198671
1631192850533,30315,241598,198669
1631192850543,30316,241579,198698
1631192850553,30313,241573,198680
1631192850563,30323,241565,198689
1631192850573,30320,241534,198681
1631192850583,30321,241570,198686
1631192850593,30323,241534,198694
1631192850603,30328,241566,198677
1631192850613,30323,241587,198682
1631192850623,30325,241594,198694
1631192850633,30325,241538,198685
1631192850643,30321,241551,198677
1631192850653,30332,241576,198695
1631192850663,30332,241553,198700
1631192850673,30339,241567,198696
1631192850683,30330,241570,198727
1631192850693,30341,241573,198698
1631192850703,30350,241566,198709
1631192850713,30361,241614,198729
1631192850723,30348,241618,198728
1631192850733,30367,241580,198752
1631192850743,30366,241611,198747
1631192850753,30377,241632,198731
1631192850763,30382,241642,198749
1631192850773,30386,241674,198761
1631192850783,30392,241630,198774
1631192850793,30405,241664,198808
1631192850803,30413,241659,198794
1631192850813,30412,241727,198808
1631192850823,30423,241745,198824
1631192850833,30437,241712,198833
1631192850843,30438,241741,198842
1631192850853,30465,241757,198869
1631192850863,30460,241799,198896
1631192850873,30471,241770,198876
1631192850883,30487,241818,198875
1631192850893,30489,241836,198890
1631192850903,30502,241806,198898
1631192850913,30512,241873,198898
1631192850923,30521,241885,198961
1631192850933,30529,241945,198989
1631192850943,30536,241925,198973
1631192850953,30552,241956,199014
1631192850963,30562,241994,199048
1631192850973,30579,241995,199078
1631192850983,30585,242056,199104
1631192850993,30605,242065,199122
1631192851003,30615,242058,199124
1631192851013,30630,242090,199161
1631192851023,30635,242112,199197
1631192851033,30649,242168,199201
1631192851043,30659,242165,199238
1631192851053,30671,242222,199249
1631192851063,30684,242223,199279
1631192851073,30699,242222,199279
1631192851083,30710,242260,199337
1631192851093,30722,242325,199343
1631192851103,30729,242307,199390
1631192851113,30744,242378,199396
1631192851123,30759,242370,199405
1631192851133,30752,242337,199434
1631192851143,30747,242344,199424
1631192851153,30740,242324,199412
1631192851163,30726,242294,199438
1631192851173,30711,242293,199451
1631192851183,30697,242281,199443
1631192851193,30658,242255,199466
1631192851203,30644,242261,199461
1631192851213,30630,242191,199497
1631192851223,30622,242212,199495
1631192851233,30613,242240,199512
1631192851243,30603,242227,199506
1631192851253,30606,242222,199541
1631192851263,30595,242194,199509
1631192851273,30600,242213,199524
1631192851283,30581,242206,199516
1631192851293,30581,242181,199541
1631192851303,30578,242207,199524
1631192851313,30568,242216,199539
1631192851323,30572,242194,199522
1631192851333,30579,242201,199539
1631192851343,30568,242179,199559
1631192851353,30562,242180,199522
1631192851363,30568,242178,199518
1631192851373,30577,242182,199544
1631192851383,30574,242190,199532
1631192851393,30570,242192,199545
1631192851403,30576,242194,199548
1631192851413,30577,242207,199575
1631192851423,30580,242195,199570
1631192851433,30577,242206,199584
1631192851443,30579,242159,199564
1631192851453,30571,242179,199589
1631192851463,30573,242178,199573
1631192851473,30582,242157,199593
1631192851483,30579,242205,199599
1631192851493,30592,242187,199613
1631192851503,30583,242214,199610
1631192851513,30591,242191,199624
1631192851523,30586,242224,199648
1631192851533,30604,242213,199644
1631192851543,30603,242243,199651
1631192851553,30613,242229,199644
1631192851563,30609,242217,199647
1631192851573,30618,242233,199665
1631192851583,30636,242259,199668
1631192851593,30636,242276,199675
1631192851603,30648,242285,199686
1631192851613,30648,242263,199698
1631192851623,30659,242284,199691
1631192851633,30665,242303,199727
1631192851643,30670,242275,199713
1631192851653,30673,242296,199730
1631192851663,30687,242317,199712
1631192851673,30691,242324,199757
1631192851683,30696,242341,199753
1631192851693,30698,242377,199746
1631192851703,30708,242356,199763
1631192851713,30719,242389,199790
1631192851723,30729,242371,199759
1631192851733,30730,242401,199788
1631192851743,30742,242389,199773
1631192851753,30752,242412,199793
1631192851763,30757,242430,199795
1631192851773,30765,242426,199810
1631192851783,30772,242436,199828
1631192851793,30778,242453,199803
1631192851803,30790,242489,199838
1631192851813,30802,242517,199841
1631192851823,30797,242478,199835
1631192851833,30810,242505,199858
1631192851843,30821,242529,199844
1631192851853,30823,242505,199867
1631192851863,30830,242563,199847
1631192851873,30845,242550,199878
1631192851883,30853,242551,199869
1631192851893,30854,242612,199881
1631192851903,30863,242607,199884
1631192851913,30867,242613,199888
1631192851923,30876,242642,199919
1631192851933,30880,242647,199914
1631192851943,30893,242662,199916
1631192851953,30896,242684,199921
1631192851963,30905,242681,199937
1631192851973,30925,242706,199940
1631192851983,30928,242710,199966
1631192851993,30936,242706,199930
1631192852003,30941,242749,199962
1631192852013,30946,242742,199936
1631192852023,30946,242687,199966
1631192852033,30926,242700,199965
1631192852043,30924,242698,199962
1631192852053,30904,242659,199986
1631192852063,30887,242632,199967
1631192852073,30860,242615,199964
1631192852083,30836,242588,199991
1631192852093,30824,242569,199988
1631192852103,30805,242572,199976
1631192852113,30796,242546,199970
1631192852123,30780,242565,200000
1631192852133,30778,242539,199983
1631192852143,30764,242511,200009
1631192852153,30756,242545,199998
1631192852163,30751,242530,199997
1631192852173,30756,242527,199989
1631192852183,30740,242535,200005
1631192852193,30733,242533,199996
1631192852203,30735,242502,200008
1631192852213,30725,242507,199999
1631192852223,30727,242474,200008
1631192852233,30716,242496,200003
1631192852243,30710,242497,199988
1631192852253,30716,242491,200015
1631192852263,30721,242504,199995
1631192852273,30716,242505,200012
1631192852283,30724,242446,200027
1631192852293,30720,242445,200009
1631192852303,30727,242437,200023
1631192852313,30721,242476,200017
1631192852323,30727,242468,200032
1631192852333,30723,242462,199984
1631192852343,30719,242434,199997
1631192852353,30717,242405,200008
1631192852363,30716,242401,199994
1631192852373,30728,242423,200003
1631192852383,30723,242442,200010
1631192852393,30730,242431,200012
1631192852403,30729,242427,200006
1631192852413,30725,242424,200022
1631192852423,30724,242435,200010
1631192852433,30732,242436,199999
1631192852443,30737,242431,200000
1631192852453,30737,242430,199992
1631192852463,30734,242402,200011
1631192852473,30747,242420,199994
1631192852483,30758,242433,200006
1631192852493,30752,242397,200032
1631192852503,30761,242458,200012
1631192852513,30761,242436,200002
1631192852523,30768,242459,200025
1631192852533,30779,242436,200014
1631192852543,30780,242451,200004
1631192852553,30781,242462,199998
1631192852563,30783,242471,200019
1631192852573,30795,242476,200022
1631192852583,30795,242510,200018
1631192852593,30801,242515,200033
1631192852603,30809,242507,200045
1631192852613,30814,242507,200051
1631192852623,30833,242530,200034
1631192852633,30827,242499,200047
1631192852643,30834,242509,200029
1631192852653,30853,242521,200068
1631192852663,30854,242547,200059
1631192852673,30856,242572,200054
1631192852683,30864,242570,200066
1631192852693,30872,242628,200067
1631192852703,30868,242590,200071
1631192852713,30877,242642,200075
1631192852723,30888,242622,200071
1631192852733,30893,242632,200090
1631192852743,30897,242650,200097
1631192852753,30905,242654,200105
1631192852763,30910,242683,200101
1631192852773,30918,242691,200086
1631192852783,30922,242689,200120
1631192852793,30940,242721,200102
1631192852803,30941,242716,200111
1631192852813,30950,242756,200109
1631192852823,30946,242746,200116
1631192852833,30955,242755,200129
1631192852843,30971,242763,200154
1631192852853,30972,242789,200138
1631192852863,30984,242824,200134
1631192852873,30990,242852,200162
1631192852883,30995,242845,200143
1631192852893,31002,242873,200151
1631192852903,31010,242866,200176
1631192852913,31014,242889,200168
1631192852923,31020,242911,200184
1631192852933,31029,242937,200181
1631192852943,31034,242923,200181
1631192852953,31050,242972,200193
1631192852963,31059,242992,200203
1631192852973,31053,242923,200179
1631192852983,31047,242919,200182
1631192852993,31041,242918,200194
1631192853003,31020,242925,200199
1631192853013,31003,242878,200209
1631192853023,30975,242845,200188
1631192853033,30955,242819,200202
1631192853043,30938,242812,200181
1631192853053,30916,242775,200171
1631192853063,30895,242730,200200
1631192853073,30878,242748,200189
1631192853083,30870,242723,200177
1631192853093,30859,242752,200187
1631192853103,30852,242727,200193
1631192853113,30843,242740,200203
1631192853123,30841,242723,200193
1631192853133,30830,242715,200201
1631192853143,30825,242687,200191
1631192853153,30823,242716,200169
1631192853163,30816,242694,200191
1631192853173,30812,242670,200184
1631192853183,30808,242647,200182
1631192853193,30804,242652,200150
1631192853203,30793,242650,200156
1631192853213,30793,242642,200167
1631192853223,30786,242661,200179
1631192853233,30787,242650,200164
1631192853243,30790,242632,200155
1631192853253,30784,242592,200151
1631192853263,30785,242623,200140
1631192853273,30781,242584,200168
1631192853283,30783,242591,200136
1631192853293,30791,242590,200132
1631192853303,30789,242557,200143
1631192853313,30773,242561,200148
1631192853323,30775,242574,200138
1631192853333,30778,242532,200141
1631192853343,30774,242559,200128
1631192853353,30773,242525,200144
1631192853363,30777,242574,200137
1631192853373,30775,242500,200115
1631192853383,30776,242550,200093
1631192853393,30780,242539,200123
1631192853403,30783,242556,200130
1631192853413,30787,242517,200112
1631192853423,30785,242551,200120
1631192853433,30794,242561,200133
1631192853443,30791,242545,200120
1631192853453,30810,242537,200115
1631192853463,30809,242535,200111
1631192853473,30806,242552,200130
1631192853483,30816,242552,200140
1631192853493,30822,242575,200127
1631192853503,30827,242562,200116
1631192853513,30831,242580,200115
1631192853523,30829,242574,200145
1631192853533,30843,242616,200151
1631192853543,30844,242618,200134
1631192853553,30853,242601,200138
1631192853563,30856,242611,200160
1631192853573,30862,242628,200155
1631192853583,30870,242655,200150
1631192853593,30870,242624,200154
1631192853603,30876,242649,200144
1631192853613,30888,242640,200148
1631192853623,30897,242678,200158
1631192853633,30897,242666,200151
1631192853643,30918,242719,200176
1631192853653,30914,242697,200172
1631192853663,30922,242703,200163
1631192853673,30931,242717,200189
1631192853683,30934,242728,200181
1631192853693,30934,242728,200187
1631192853703,30945,242787,200198
1631192853713,30946,242771,200187
1631192853723,30954,242769,200181
1631192853733,30961,242794,200193
1631192853743,30969,242817,200197
1631192853753,30975,242812,200214
1631192853763,30983,242833,200210
1631192853773,30993,242844,200227
1631192853783,30997,242854,200223
1631192853793,31008,242875,200206
1631192853803,31006,242875,200218
1631192853813,31020,242880,200230
1631192853823,31020,242911,200257
1631192853833,31035,242945,200256
1631192853843,31041,242927,200248
1631192853853,31041,242957,200270
1631192853863,31049,242966,200269
1631192853873,31063,242986,200261
1631192853883,31060,243012,200246
1631192853893,31071,243022,200270
1631192853903,31080,243045,200289
1631192853913,31083,243040,200277
1631192853923,31100,243055,200282
1631192853933,31106,243089,200283
1631192853943,31104,243107,200283
1631192853953,31109,243108,200308
1631192853963,31127,243128,200325
1631192853973,31137,243117,200303
1631192853983,31143,243169,200313
1631192853993,31148,243160,200307
1631192854003,31149,243155,200299
1631192854013,31140,243158,200301
1631192854023,31137,243114,200302
1631192854033,31120,243113,200319
1631192854043,31102,243077,200309
1631192854053,31083,243053,200334
1631192854063,31053,243039,200313
1631192854073,31036,243020,200339
1631192854083,31016,243006,200315
1631192854093,31002,242996,200324
1631192854103,30982,242981,200336
1631192854113,30962,242951,200318
1631192854123,30950,242938,200347
1631192854133,30947,242947,200338
1631192854143,30940,242910,200350
1631192854153,30928,242934,200333
1631192854163,30922,242939,200342
1631192854173,30920,242923,200357
1631192854183,30903,242875,200332
1631192854193,30906,242883,200330
1631192854203,30894,242874,200341
1631192854213,30895,242843,200306
1631192854223,30883,242847,200308
1631192854233,30875,242865,200317
1631192854243,30873,242820,200327
1631192854253,30862,242839,200329
1631192854263,30866,242802,200305
1631192854273,30870,242801,200286
1631192854283,30872,242809,200309
1631192854293,30858,242808,200289
1631192854303,30864,242779,200271
1631192854313,30859,242808,200297
1631192854323,30854,242786,200286
1631192854333,30848,242752,200268
1631192854343,30853,242753,200280
1631192854353,30847,242744,200283
1631192854363,30856,242710,200263
1631192854373,30854,242715,200246
1631192854383,30849,242740,200276
1631192854393,30858,242688,200275
1631192854403,30854,242716,200263
1631192854413,30863,242685,200233
1631192854423,30848,242697,200264
1631192854433,30858,242708,200261
1631192854443,30869,242708,200228
1631192854453,30859,242736,200257
1631192854463,30861,242714,200247
1631192854473,30867,242733,200238
1631192854483,30872,242714,200242
1631192854493,30871,242712,200267
1631192854503,30871,242700,200230
1631192854513,30883,242729,200256
1631192854523,30879,242698,200243
1631192854533,30886,242723,200243
1631192854543,30891,242738,200238
1631192854553,30894,242704,200238
1631192854563,30899,242752,200239
1631192854573,30907,242756,200262
1631192854583,30914,242730,200253
1631192854593,30919,242717,200245
1631192854603,30918,242774,200243
1631192854613,30927,242762,200250
1631192854623,30934,242784,200261
1631192854633,30933,242783,200255
1631192854643,30945,242791,200267
1631192854653,30953,242811,200245
1631192854663,30950,242848,200284
1631192854673,30961,242820,200262
1631192854683,30962,242838,200286
1631192854693,30970,242841,200260
1631192854703,30976,242851,200277
1631192854713,30982,242853,200284
1631192854723,30984,242891,200296
1631192854733,31005,242905,200285
1631192854743,31007,242933,200294
1631192854753,31006,242903,200309
1631192854763,31013,242923,200285
1631192854773,31018,242915,200321
1631192854783,31030,242938,200317
1631192854793,31044,242946,200304
1631192854803,31041,242962,200319
1631192854813,31054,242974,200333
1631192854823,31051,242998,200316
1631192854833,31060,242992,200307
1631192854843,31074,243013,200354
1631192854853,31077,243038,200334
1631192854863,31078,243022,200353
1631192854873,31085,243065,200335
1631192854883,31091,243071,200344
1631192854893,31100,243096,200342
1631192854903,31103,243105,200359
1631192854913,31114,243113,200347
1631192854923,31126,243149,200355
1631192854933,31120,243131,200369
1631192854943,31122,243151,200369
1631192854953,31140,243174,200383
1631192854963,31145,243216,200390
1631192854973,31153,243202,200381
1631192854983,31166,243201,200407
1631192854993,31175,243262,200382
1631192855003,31175,243209,200392
1631192855013,31189,243267,200400
1631192855023,31186,243243,200415
1631192855033,31196,243244,200401
1631192855043,31190,243257,200372
1631192855053,31207,243249,200411
1631192855063,31188,243185,200383
1631192855073,31182,243193,200402
1631192855083,31146,243189,200400
1631192855093,31135,243184,200408
1631192855103,31113,243141,200397
1631192855113,31094,243099,200395
1631192855123,31070,243100,200385
1631192855133,31051,243049,200379
1631192855143,31032,243037,200367
1631192855153,31020,243044,200383
1631192855163,30999,243021,200375
1631192855173,30993,243017,200381
1631192855183,30984,243006,200381
1631192855193,30974,242960,200368
1631192855203,30972,242968,200379
1631192855213,30970,242964,200367
1631192855223,30963,242988,200386
1631192855233,30955,242999,200344
1631192855243,30936,242952,200342
1631192855253,30925,242897,200368
1631192855263,30922,242887,200338
1631192855273,30923,242909,200328
1631192855283,30912,242914,200330
1631192855293,30909,242869,200337
1631192855303,30913,242872,200308
1631192855313,30909,242886,200329
1631192855323,30909,242856,200353
1631192855333,30904,242858,200381
1631192855343,30915,242849,200362
1631192855353,30909,242861,200349
1631192855363,30913,242847,200369
1631192855373,30914,242891,200374
1631192855383,30911,242838,200383
1631192855393,30912,242841,200393
1631192855403,30907,242797,200395
1631192855413,30911,242816,200394
1631192855423,30909,242831,200368
1631192855433,30909,242798,200379
1631192855443,30913,242771,200366
1631192855453,30905,242772,200357
1631192855463,30902,242754,200345
1631192855473,30904,242740,200354
1631192855483,30903,242741,200327
1631192855493,30902,242765,200313
1631192855503,30901,242736,200318
1631192855513,30907,242744,200295
1631192855523,30902,242746,200304
1631192855533,30905,242730,200266
1631192855543,30905,242680,200295
1631192855553,30906,242715,200299
1631192855563,30901,242747,200293
1631192855573,30912,242694,200280
1631192855583,30923,242690,200264
1631192855593,30917,242725,200263
1631192855603,30921,242724,200232
1631192855613,30930,242742,200255
1631192855623,30937,242715,200250
1631192855633,30936,242745,200261
1631192855643,30938,242736,200260
1631192855653,30952,242801,200261
1631192855663,30948,242764,200268
1631192855673,30953,242771,200271
1631192855683,30961,242751,200271
1631192855693,30960,242784,200270
1631192855703,30976,242807,200293
1631192855713,30968,242805,200256
1631192855723,30983,242837,200259
1631192855733,30996,242817,200273
1631192855743,30991,242828,200284
1631192855753,30996,242819,200258
1631192855763,31009,242871,200270
1631192855773,31007,242842,200286
1631192855783,31017,242853,200296
1631192855793,31015,242894,200291
1631192855803,31022,242894,200265
1631192855813,31024,242960,200307
1631192855823,31037,242899,200291
1631192855833,31038,242929,200279
1631192855843,31045,242923,200295
1631192855853,31051,242964,200298
1631192855863,31057,242980,200310
1631192855873,31061,242991,200308
1631192855883,31069,243019,200303
1631192855893,31076,243009,200313
1631192855903,31082,242997,200331
1631192855913,31087,243026,200318
1631192855923,31088,243073,200319
1631192855933,31102,243058,200321
1631192855943,31109,243078,200314
1631192855953,31117,243076,200329
1631192855963,31113,243106,200332
1631192855973,31123,243117,200339
1631192855983,31134,243132,200351
1631192855993,31136,243127,200346
1631192856003,31143,243138,200367
1631192856013,31150,243167,200336
1631192856023,31154,243207,200380
1631192856033,31171,243216,200359
1631192856043,31173,243237,200362
1631192856053,31177,243234,200370
1631192856063,31187,243241,200357
1631192856073,31184,243202,200379
1631192856083,31188,243226,200351
1631192856093,31179,243209,200375
1631192856103,31160,243161,200375
1631192856113,31145,243167,200362
1631192856123,31126,243127,200362
1631192856133,31093,243080,200368
1631192856143,31071,243078,200364
1631192856153,31051,243028,200347
1631192856163,31023,243012,200358
1631192856173,31009,242974,200338
1631192856183,31005,242981,200363
1631192856193,30981,242968,200343
1631192856203,30970,242985,200350
1631192856213,30971,242951,200331
1631192856223,30961,242990,200339
1631192856233,30945,242957,200331
1631192856243,30941,242981,200355
1631192856253,30929,242942,200344
1631192856263,30924,242899,200307
1631192856273,30915,242899,200309
1631192856283,30899,242864,200300
1631192856293,30895,242850,200324
1631192856303,30883,242862,200298
1631192856313,30880,242825,200285
1631192856323,30871,242831,200268
1631192856333,30877,242830,200285
1631192856343,30868,242793,200233
1631192856353,30861,242768,200221
1631192856363,30871,242784,200194
1631192856373,30857,242743,200197
1631192856383,30860,242693,200157
1631192856393,30845,242719,200184
1631192856403,30848,242687,200148
1631192856413,30842,242659,200144
1631192856423,30832,242675,200125
1631192856433,30825,242631,200130
1631192856443,30818,242601,200101
1631192856453,30819,242633,200108
1631192856463,30820,242557,200093
1631192856473,30815,242600,200080
1631192856483,30812,242579,200072
1631192856493,30809,242543,200048
1631192856503,30810,242536,200063
1631192856513,30816,242549,200055
1631192856523,30808,242546,200048
1631192856533,30813,242536,200051
1631192856543,30808,242531,200018
1631192856553,30813,242535,200021
1631192856563,30813,242531,200034
1631192856573,30819,242527,200019
1631192856583,30816,242516,200021
1631192856593,30815,242502,200018
1631192856603,30816,242563,199999
1631192856613,30824,242523,200008
1631192856623,30825,242534,200007
1631192856633,30819,242507,199993
1631192856643,30822,242526,199996
1631192856653,30831,242520,199994
1631192856663,30838,242530,199981
1631192856673,30843,242538,199980
1631192856683,30852,242534,199985
1631192856693,30846,242537,199998
1631192856703,30851,242571,200006
1631192856713,30845,242593,200012
1631192856723,30861,242549,199988
1631192856733,30859,242575,199998
1631192856743,30863,242609,199994
1631192856753,30876,242589,199998
1631192856763,30880,242582,200002
1631192856773,30877,242590,199998
1631192856783,30885,242631,200001
1631192856793,30884,242628,199985
1631192856803,30898,242654,200010
1631192856813,30895,242634,200002
1631192856823,30909,242641,200029
1631192856833,30906,242665,200023
1631192856843,30909,242675,200034
1631192856853,30926,242671,200016
1631192856863,30931,242692,200023
1631192856873,30927,242741,200005
1631192856883,30946,242735,200039
1631192856893,30942,242709,200040
1631192856903,30954,242718,200028
1631192856913,30957,242770,200044
1631192856923,30960,242755,200036
1631192856933,30968,242789,200045
1631192856943,30974,242780,200049
1631192856953,30979,242812,200071
1631192856963,30983,242843,200066
1631192856973,30992,242857,200083
1631192856983,30995,242830,200072
1631192856993,31000,242869,200084
1631192857003,31018,242865,200073
1631192857013,31013,242847,200077
1631192857023,31020,242928,200083
1631192857033,31044,242933,200083
1631192857043,31035,242931,200080
1631192857053,31044,242897,200085
1631192857063,31053,242955,200090
1631192857073,31051,242995,200103
1631192857083,31060,242952,200084
1631192857093,31060,242929,200067
1631192857103,31051,242931,200042
1631192857113,31032,242904,200066
1631192857123,31019,242868,200056
1631192857133,30993,242861,200041
1631192857143,30969,242786,200048
1631192857153,30948,242756,200032
1631192857163,30915,242761,200041
1631192857173,30899,242699,200035
1631192857183,30873,242703,200024
1631192857193,30862,242672,200031
1631192857203,30845,242635,200013
1631192857213,30836,242700,200013
1631192857223,30831,242644,200017
1631192857233,30814,242628,200015
1631192857243,30807,242632,200022
1631192857253,30804,242602,199997
1631192857263,30784,242600,199988
1631192857273,30776,242565,199989
1631192857283,30769,242572,199984
1631192857293,30758,242512,200012
1631192857303,30749,242508,199982
1631192857313,30744,242525,199984
1631192857323,30747,242497,199993
1631192857333,30742,242473,199958
1631192857343,30738,242472,199978
1631192857353,30724,242488,199960
1631192857363,30724,242467,199962
1631192857373,30725,242459,199958
1631192857383,30715,242449,199947
1631192857393,30724,242437,199952
1631192857403,30719,242410,199950
1631192857413,30708,242411,199921
1631192857423,30711,242428,199933
1631192857433,30702,242390,199937
1631192857443,30695,242369,199938
1631192857453,30696,242363,199932
1631192857463,30698,242365,199930
1631192857473,30699,242379,199929
1631192857483,30694,242364,199911
1631192857493,30698,242350,199912
1631192857503,30693,242372,199916
1631192857513,30704,242369,199922
1631192857523,30701,242343,199909
1631192857533,30702,242349,199910
1631192857543,30702,242372,199906
1631192857553,30704,242372,199914
1631192857563,30707,242358,199900
1631192857573,30712,242348,199916
1631192857583,30717,242365,199880
1631192857593,30707,242364,199916
1631192857603,30717,242380,199912
1631192857613,30724,242385,199896
1631192857623,30726,242398,199906
1631192857633,30728,242393,199895
1631192857643,30733,242416,199916
1631192857653,30738,242409,199929
1631192857663,30752,242415,199925
1631192857673,30742,242433,199926
1631192857683,30757,242404,199923
1631192857693,30754,242441,199927
1631192857703,30765,242426,199942
1631192857713,30769,242451,199935
1631192857723,30775,242443,199933
1631192857733,30784,242492,199941
1631192857743,30785,242463,199945
1631192857753,30788,242514,199968
1631192857763,30791,242487,199954
1631192857773,30797,242527,199937
1631192857783,30805,242540,199939
1631192857793,30807,242518,199974
1631192857803,30818,242535,199954
1631192857813,30826,242538,199976
1631192857823,30828,242551,199952
1631192857833,30834,242624,199975
1631192857843,30846,242589,199979
1631192857853,30840,242565,199994
1631192857863,30849,242623,199978
1631192857873,30862,242611,199999
1631192857883,30861,242620,199976
1631192857893,30868,242642,199975
1631192857903,30873,242704,199992
1631192857913,30881,242657,199988
1631192857923,30885,242667,200031
1631192857933,30896,242707,200006
1631192857943,30903,242701,200018
1631192857953,30907,242724,200015
1631192857963,30915,242736,200029
1631192857973,30928,242773,200018
1631192857983,30936,242762,200039
1631192857993,30929,242807,200029
1631192858003,30943,242797,200048
1631192858013,30946,242831,200061
1631192858023,30961,242827,200039
1631192858033,30961,242854,200068
1631192858043,30973,242859,200052
1631192858053,30980,242894,200065
1631192858063,30991,242925,200086
1631192858073,30993,242927,200085
1631192858083,31002,242942,200092
1631192858093,31002,242928,200073
1631192858103,31005,242934,200069
1631192858113,30991,242907,200063
1631192858123,30986,242868,200055
1631192858133,30972,242857,200089
1631192858143,30947,242829,200082
1631192858153,30925,242815,200104
1631192858163,30906,242793,200082
1631192858173,30873,242762,200074
1631192858183,30852,242711,200077
1631192858193,30828,242728,200077
1631192858203,30822,242698,200054
1631192858213,30804,242676,200064
1631192858223,30800,242700,200065
1631192858233,30796,242677,200062
1631192858243,30790,242682,200066
1631192858253,30773,242676,200062
1631192858263,30772,242699,200043
1631192858273,30761,242652,200074
1631192858283,30764,242644,200063
1631192858293,30750,242623,200054
1631192858303,30749,242641,200064
1631192858313,30736,242619,200052
1631192858323,30733,242610,200056
1631192858333,30722,242592,200026
1631192858343,30719,242596,200053
1631192858353,30716,242579,200054
1631192858363,30724,242599,200050
1631192858373,30714,242593,200071
1631192858383,30722,242592,200029
1631192858393,30711,242559,200015
1631192858403,30717,242535,200024
1631192858413,30712,242535,200005
1631192858423,30703,242502,200007
1631192858433,30705,242515,200021
1631192858443,30703,242495,200010
1631192858453,30710,242498,199999
1631192858463,30704,242510,200038
1631192858473,30707,242514,200011
1631192858483,30701,242500,200008
1631192858493,30708,242507,200013
1631192858503,30708,242480,199983
1631192858513,30709,242490,199999
1631192858523,30706,242486,200005
1631192858533,30713,242514,200003
1631192858543,30721,242490,200008
1631192858553,30726,242499,200021
1631192858563,30726,242511,200031
1631192858573,30727,242500,200018
1631192858583,30739,242513,199999
1631192858593,30741,242521,200025
1631192858603,30747,242527,200026
1631192858613,30755,242513,200019
1631192858623,30762,242532,200023
1631192858633,30768,242504,200045
1631192858643,30764,242520,200047
1631192858653,30762,242521,200056
1631192858663,30775,242541,200051
1631192858673,30780,242597,200061
1631192858683,30788,242584,200067
1631192858693,30795,242609,200063
1631192858703,30801,242625,200044
1631192858713,30802,242619,200049
1631192858723,30806,242633,200054
1631192858733,30812,242635,200064
1631192858743,30816,242649,200063
1631192858753,30827,242644,200059
1631192858763,30824,242691,200069
1631192858773,30846,242685,200072
1631192858783,30846,242656,200086
1631192858793,30850,242716,200088
1631192858803,30862,242725,200077
1631192858813,30863,242722,200086
1631192858823,30864,242759,200112
1631192858833,30878,242736,200091
1631192858843,30892,242760,200121
1631192858853,30891,242779,200130
1631192858863,30897,242774,200109
1631192858873,30904,242799,200123
1631192858883,30904,242801,200112
1631192858893,30913,242833,200117
1631192858903,30922,242831,200136
1631192858913,30929,242884,200138
1631192858923,30935,242885,200143
1631192858933,30937,242902,200146
1631192858943,30946,242889,200155
1631192858953,30956,242909,200168
1631192858963,30960,242941,200135
1631192858973,30963,242945,200155
1631192858983,30975,242956,200167
1631192858993,30981,242977,200186
1631192859003,30989,242994,200185
1631192859013,30998,243021,200172
1631192859023,31014,243009,200192
1631192859033,31021,243022,200179
1631192859043,31016,243027,200198
1631192859053,31020,243035,200169
1631192859063,31024,243004,200167
1631192859073,31013,243023,200172
1631192859083,31001,243002,200166
1631192859093,30985,242951,200179
1631192859103,30955,242944,200153
1631192859113,30944,242921,200183
1631192859123,30927,242872,200175
1631192859133,30896,242871,200190
1631192859143,30876,242853,200164
1631192859153,30859,242847,200172
1631192859163,30842,242843,200190
1631192859173,30830,242848,200176
1631192859183,30820,242822,200156
1631192859193,30804,242795,200180
1631192859203,30803,242811,200160
1631192859213,30793,242783,200153
1631192859223,30792,242768,200178
1631192859233,30782,242779,200162
1631192859243,30781,242793,200155
1631192859253,30770,242784,200150
1631192859263,30768,242750,200143
1631192859273,30762,242767,200150
1631192859283,30763,242745,200151
1631192859293,30753,242688,200166
1631192859303,30758,242735,200159
1631192859313,30751,242711,200137
1631192859323,30752,242694,200134
1631192859333,30746,242681,200141
1631192859343,30740,242702,200145
1631192859353,30743,242697,200136
1631192859363,30740,242694,200109
1631192859373,30735,242650,200105
1631192859383,30732,242606,200109
1631192859393,30727,242648,200108
1631192859403,30725,242651,200106
1631192859413,30723,242610,200098
1631192859423,30729,242609,200082
1631192859433,30716,242623,200074
1631192859443,30726,242611,200082
1631192859453,30739,242602,200078
1631192859463,30724,242609,200078
1631192859473,30722,242645,200105
1631192859483,30730,242631,200111
1631192859493,30734,242644,200101
1631192859503,30736,242617,200088
1631192859513,30731,242590,200079
1631192859523,30742,242585,200084
1631192859533,30744,242629,200092
1631192859543,30745,242598,200078
1631192859553,30750,242618,200098
1631192859563,30749,242646,200088
1631192859573,30758,242641,200084
1631192859583,30768,242668,200081
1631192859593,30768,242644,200105
1631192859603,30781,242619,200083
1631192859613,30776,242647,200110
1631192859623,30792,242680,200124
1631192859633,30788,242690,200097
1631192859643,30792,242634,200102
1631192859653,30797,242714,200100
1631192859663,30802,242690,200106
1631192859673,30795,242703,200112
1631192859683,30811,242693,200113
1631192859693,30813,242706,200118
1631192859703,30818,242711,200104
1631192859713,30825,242730,200113
1631192859723,30830,242720,200104
1631192859733,30838,242745,200101
1631192859743,30837,242741,200123
1631192859753,30838,242756,200115
1631192859763,30851,242784,200126
1631192859773,30857,242786,200139
1631192859783,30851,242793,200105
1631192859793,30865,242822,200128
1631192859803,30873,242824,200102
1631192859813,30876,242809,200125
1631192859823,30876,242823,200148
1631192859833,30888,242791,200132
1631192859843,30890,242833,200152
1631192859853,30898,242870,200135
1631192859863,30906,242859,200149
1631192859873,30907,242852,200142
1631192859883,30909,242861,200146
1631192859893,30916,242928,200137
1631192859903,30920,242918,200136
1631192859913,30931,242931,200176
1631192859923,30941,242954,200167
1631192859933,30948,242933,200133
1631192859943,30938,242926,200159
1631192859953,30936,242930,200144
1631192859963,30917,242894,200143
1631192859973,30908,242875,200155
1631192859983,30886,242849,200139
1631192859993,30860,242816,200139
1631192860003,30832,242805,200146
1631192860013,30810,242746,200140
1631192860023,30791,242713,200113
1631192860033,30770,242737,200108
1631192860043,30752,242711,200140
1631192860053,30730,242668,200129
1631192860063,30739,242661,200132
1631192860073,30716,242675,200111
1631192860083,30707,242642,200110
1631192860093,30700,242620,200117
1631192860103,30693,242622,200099
1631192860113,30682,242600,200110
1631192860123,30674,242585,200088
1631192860133,30665,242595,200085
1631192860143,30666,242555,200074
1631192860153,30645,242544,200081
1631192860163,30641,242507,200084
1631192860173,30636,242509,200072
1631192860183,30630,242521,200052
1631192860193,30629,242520,200076
1631192860203,30633,242438,200062
1631192860213,30638,242482,200057
1631192860223,30634,242492,200052
1631192860233,30631,242464,200050
1631192860243,30628,242424,200040
1631192860253,30630,242407,200059
1631192860263,30632,242411,200027
1631192860273,30624,242434,200046
1631192860283,30624,242439,200052
1631192860293,30615,242364,200026
1631192860303,30617,242422,200044
1631192860313,30613,242390,200042
1631192860323,30611,242398,200027
1631192860333,30607,242381,200027
1631192860343,30617,242340,200011
1631192860353,30621,242392,200010
1631192860363,30624,242359,200011
1631192860373,30622,242378,200022
1631192860383,30633,242370,200003
1631192860393,30633,242343,199988
1631192860403,30640,242367,199983
1631192860413,30643,242380,199998
1631192860423,30636,242383,199978
1631192860433,30646,242391,199997
1631192860443,30644,242370,200010
1631192860453,30662,242378,200000
1631192860463,30665,242399,199996
1631192860473,30662,242407,199978
1631192860483,30668,242434,200031
1631192860493,30670,242415,199999
1631192860503,30676,242454,200005
1631192860513,30680,242410,200014
1631192860523,30681,242457,199993
1631192860533,30686,242447,199989
1631192860543,30697,242477,200002
1631192860553,30712,242474,199989
1631192860563,30704,242457,199990
1631192860573,30713,242468,199971
1631192860583,30718,242464,199982
1631192860593,30727,242525,199979
1631192860603,30730,242475,199993
1631192860613,30739,242543,199969
1631192860623,30738,242535,199996
1631192860633,30749,242568,199989
1631192860643,30752,242578,199984
1631192860653,30751,242571,199993
1631192860663,30762,242576,199977
1631192860673,30770,242637,199996
1631192860683,30771,242629,199987
1631192860693,30775,242647,199987
1631192860703,30777,242651,199984
1631192860713,30799,242650,199988
1631192860723,30804,242627,200007
1631192860733,30803,242663,199984
1631192860743,30803,242678,200002
1631192860753,30818,242688,199995
1631192860763,30819,242735,199997
1631192860773,30828,242767,199968
1631192860783,30832,242749,199979
1631192860793,30853,242749,200005
1631192860803,30848,242769,199997
1631192860813,30853,242773,200013
1631192860823,30860,242796,200016
1631192860833,30865,242824,200022
1631192860843,30875,242823,200003
1631192860853,30882,242835,200002
1631192860863,30880,242857,200015
1631192860873,30881,242814,199986
1631192860883,30860,242774,199992
1631192860893,30858,242783,199994
1631192860903,30832,242744,199995
1631192860913,30822,242710,199986
1631192860923,30788,242711,199975
1631192860933,30763,242700,199983
1631192860943,30742,242650,199976
1631192860953,30723,242637,199963
1631192860963,30705,242602,199967
1631192860973,30690,242583,200007
1631192860983,30669,242578,199980
1631192860993,30660,242591,199968
1631192861003,30652,242576,199959
1631192861013,30643,242583,199974
1631192861023,30631,242540,199967
1631192861033,30618,242534,199971
1631192861043,30619,242530,199956
1631192861053,30606,242502,199950
1631192861063,30607,242507,199945
1631192861073,30579,242501,199944
1631192861083,30578,242466,199917
1631192861093,30573,242468,199937
1631192861103,30566,242435,199925
1631192861113,30559,242416,199927
1631192861123,30559,242397,199923
1631192861133,30554,242404,199909
1631192861143,30553,242414,199893
1631192861153,30554,242374,199883
1631192861163,30552,242386,199895
1631192861173,30554,242340,199891
1631192861183,30554,242349,199879
1631192861193,30549,242341,199867
1631192861203,30550,242312,199876
1631192861213,30550,242360,199871
1631192861223,30543,242313,199865
1631192861233,30542,242311,199857
1631192861243,30533,242322,199873
1631192861253,30555,242292,199849
1631192861263,30551,242296,199829
1631192861273,30551,242320,199848
1631192861283,30553,242261,199851
1631192861293,30552,242272,199862
1631192861303,30559,242272,199874
1631192861313,30559,242257,199821
1631192861323,30565,242289,199852
1631192861333,30570,242280,199813
1631192861343,30571,242276,199832
1631192861353,30585,242307,199841
1631192861363,30580,242255,199836
1631192861373,30585,242321,199835
1631192861383,30591,242296,199826
1631192861393,30600,242299,199833
1631192861403,30599,242321,199837
1631192861413,30601,242356,199818
1631192861423,30609,242318,199839
1631192861433,30614,242327,199824
1631192861443,30622,242347,199827
1631192861453,30628,242355,199856
1631192861463,30628,242357,199828
1631192861473,30632,242392,199843
1631192861483,30646,242387,199832
1631192861493,30647,242402,199858
1631192861503,30656,242375,199848
1631192861513,30665,242418,199850
1631192861523,30665,242402,199853
1631192861533,30677,242434,199864
1631192861543,30686,242424,199842
1631192861553,30686,242406,199851
1631192861563,30697,242444,199862
1631192861573,30707,242495,199866
1631192861583,30709,242514,199875
1631192861593,30713,242499,199873
1631192861603,30728,242528,199874
1631192861613,30734,242536,199868
1631192861623,30743,242562,199873
1631192861633,30740,242579,199893
1631192861643,30743,242588,199897
1631192861653,30758,242590,199884
1631192861663,30768,242625,199909
1631192861673,30769,242608,199898
1631192861683,30779,242658,199889
1631192861693,30794,242642,199901
1631192861703,30797,242692,199899
1631192861713,30809,242672,199926
1631192861723,30824,242690,199943
1631192861733,30817,242692,199951
1631192861743,30834,242722,199917
1631192861753,30836,242731,199916
1631192861763,30850,242767,199945
1631192861773,30859,242757,199941
1631192861783,30865,242792,199957
1631192861793,30866,242802,199954
1631192861803,30875,242829,199957
1631192861813,30888,242838,199962
1631192861823,30891,242851,199966
1631192861833,30899,242884,199972
1631192861843,30908,242885,199989
1631192861853,30912,242886,199992
1631192861863,30919,242936,199997
1631192861873,30929,242922,199990
1631192861883,30938,242953,200015
1631192861893,30958,242937,199993
1631192861903,30960,242989,200036
1631192861913,30963,243024,200037
1631192861923,30981,243040,200019
1631192861933,30982,243062,200040
1631192861943,30997,243044,200045
1631192861953,31002,243069,200060
1631192861963,31006,243089,200062
1631192861973,31020,243115,200018
1631192861983,31020,243098,200035
1631192861993,31022,243143,200036
1631192862003,31024,243088,200047
1631192862013,31010,243080,200029
1631192862023,31014,243085,200031
1631192862033,30996,243016,200015
1631192862043,30979,243025,200031
1631192862053,30952,242972,200040
1631192862063,30922,243000,200034
1631192862073,30898,242942,200007
1631192862083,30881,242918,200029
1631192862093,30865,242953,200028
1631192862103,30857,242898,200032
1631192862113,30838,242918,200017
1631192862123,30824,242918,200030
1631192862133,30818,242897,200027
1631192862143,30809,242858,200034
1631192862153,30794,242915,200029
1631192862163,30792,242869,200018
1631192862173,30781,242861,200011
1631192862183,30773,242836,200022
1631192862193,30769,242837,200008
1631192862203,30766,242826,199995
1631192862213,30743,242781,199998
1631192862223,30739,242789,199992
1631192862233,30732,242799,199989
1631192862243,30736,242786,199991
1631192862253,30730,242796,199976
1631192862263,30736,242722,199992
1631192862273,30736,242754,199958
1631192862283,30725,242737,199974
1631192862293,30729,242713,199967
1631192862303,30721,242730,199968
1631192862313,30725,242695,199950
1631192862323,30720,242678,199957
1631192862333,30729,242665,199937
1631192862343,30718,242684,199925
1631192862353,30713,242699,199919
1631192862363,30719,242684,199918
1631192862373,30716,242626,199915
1631192862383,30709,242662,199928
1631192862393,30724,242647,199931
1631192862403,30722,242659,199906
1631192862413,30721,242630,199904
1631192862423,30722,242637,199898
1631192862433,30717,242615,199914
1631192862443,30724,242647,199897
1631192862453,30725,242632,199908
1631192862463,30728,242664,199893
1631192862473,30732,242608,199897
1631192862483,30739,242635,199894
1631192862493,30739,242648,199896
1631192862503,30755,242642,199893
1631192862513,30766,242626,199873
1631192862523,30759,242618,199875
1631192862533,30770,242639,199905
1631192862543,30763,242634,199891
1631192862553,30774,242648,199884
1631192862563,30780,242699,199888
1631192862573,30779,242668,199866
1631192862583,30791,242640,199901
1631192862593,30787,242654,199873
1631192862603,30795,242688,199896
1631192862613,30803,242685,199887
1631192862623,30802,242676,199898
1631192862633,30809,242699,199886
1631192862643,30813,242720,199898
1631192862653,30824,242750,199885
1631192862663,30833,242712,199884
1631192862673,30844,242759,199893
1631192862683,30848,242736,199915
1631192862693,30847,242783,199914
1631192862703,30852,242794,199897
1631192862713,30865,242774,199918
1631192862723,30861,242799,199903
1631192862733,30874,242800,199906
1631192862743,30876,242826,199925
1631192862753,30886,242824,199939
1631192862763,30897,242874,199917
1631192862773,30903,242872,199932
1631192862783,30905,242878,199926
1631192862793,30914,242840,199932
1631192862803,30924,242910,199941
1631192862813,30924,242906,199937
1631192862823,30931,242933,199934
1631192862833,30950,242959,199950
1631192862843,30952,242962,199955
1631192862853,30953,242980,199922
1631192862863,30965,242956,199937
1631192862873,30973,242988,199960
1631192862883,30985,243008,199962
1631192862893,30989,243035,199946
1631192862903,30993,243069,199973
1631192862913,31007,243028,199990
1631192862923,31008,243088,199988
1631192862933,31023,243102,199989
1631192862943,31029,243097,200015
1631192862953,31035,243084,200000
1631192862963,31046,243130,199994
1631192862973,31043,243127,200008
1631192862983,31052,243158,200021
1631192862993,31062,243139,200012
1631192863003,31073,243183,200029
1631192863013,31086,243192,200022
1631192863023,31099,243217,200018
1631192863033,31091,243230,200048
1631192863043,31096,243248,200034
1631192863053,31113,243250,200033
1631192863063,31121,243277,200051
1631192863073,31128,243313,200072
1631192863083,31132,243283,200060
1631192863093,31143,243320,200059
1631192863103,31147,243311,200042
1631192863113,31144,243321,200041
1631192863123,31139,243309,200040
1631192863133,31142,243284,200030
1631192863143,31127,243263,200050
1631192863153,31116,243231,200062
1631192863163,31084,243246,200050
1631192863173,31064,243207,200038
1631192863183,31037,243167,200031
1631192863193,31015,243146,200045
1631192863203,30999,243134,200034
1631192863213,30992,243123,200031
1631192863223,30969,243144,200045
1631192863233,30958,243118,200053
1631192863243,30956,243118,200051
1631192863253,30943,243165,200041
1631192863263,30936,243108,200032
1631192863273,30924,243113,200049
1631192863283,30920,243109,200051
1631192863293,30913,243093,200035
1631192863303,30902,243060,200059
1631192863313,30903,243058,200040
1631192863323,30895,243047,200019
1631192863333,30889,243057,200027
1631192863343,30867,243082,200022
1631192863353,30867,243000,200027
1631192863363,30856,242996,200029
1631192863373,30859,242974,200030
1631192863383,30860,242971,199997
1631192863393,30860,242958,200006
1631192863403,30853,242989,199994
1631192863413,30847,242931,199985
1631192863423,30849,242938,199993
1631192863433,30844,242931,199992
1631192863443,30847,242919,199997
1631192863453,30846,242900,199978
1631192863463,30840,242913,199967
1631192863473,30844,242886,199974
1631192863483,30844,242877,199983
1631192863493,30843,242871,199975
1631192863503,30834,242876,199964
1631192863513,30844,242870,199961
1631192863523,30846,242866,199946
1631192863533,30845,242862,199952
1631192863543,30846,242890,199950
1631192863553,30848,242842,199956
1631192863563,30847,242844,199954
1631192863573,30857,242870,199963
1631192863583,30856,242846,199941
1631192863593,30867,242865,199958
1631192863603,30865,242850,199949
1631192863613,30868,242818,199962
1631192863623,30867,242858,199953
1631192863633,30883,242858,199944
1631192863643,30879,242843,199965
1631192863653,30883,242834,199960
1631192863663,30892,242892,199953
1631192863673,30893,242897,199959
1631192863683,30898,242889,199964
1631192863693,30906,242909,199938
1631192863703,30916,242916,199943
1631192863713,30917,242921,199965
1631192863723,30915,242885,199968
1631192863733,30933,242915,199967
1631192863743,30929,242943,199963
1631192863753,30934,242956,199977
1631192863763,30937,242954,199967
1631192863773,30946,242964,199961
1631192863783,30956,242981,199966
1631192863793,30960,242948,199976
1631192863803,30962,242988,199995
1631192863813,30976,243048,199994
1631192863823,30978,243050,199988
1631192863833,30982,243028,199987
1631192863843,30991,243012,199990
1631192863853,30996,243053,199985
1631192863863,31001,243052,199984
1631192863873,31009,243059,199987
1631192863883,31016,243096,200016
1631192863893,31027,243097,200014
1631192863903,31022,243131,200017
1631192863913,31034,243163,200052
1631192863923,31036,243132,200028
1631192863933,31048,243157,200016
1631192863943,31054,243173,200017
1631192863953,31056,243150,200034
1631192863963,31073,243215,200041
1631192863973,31064,243225,200035
1631192863983,31081,243215,200054
1631192863993,31082,243193,200049
1631192864003,31091,243258,200066
1631192864013,31112,243291,200056
1631192864023,31110,243295,200047
1631192864033,31114,243272,200054
1631192864043,31124,243312,200080
1631192864053,31127,243296,200070
1631192864063,31138,243328,200102
1631192864073,31145,243349,200080
1631192864083,31150,243391,200091
1631192864093,31158,243370,200075
1631192864103,31168,243380,200069
1631192864113,31176,243408,200111
1631192864123,31184,243439,200119
1631192864133,31173,243444,200122
1631192864143,31202,243479,200109
1631192864153,31209,243479,200088
1631192864163,31193,243478,200111
1631192864173,31192,243470,200104
1631192864183,31177,243436,200100
1631192864193,31170,243435,200139
1631192864203,31152,243375,200097
1631192864213,31129,243374,200128
1631192864223,31108,243321,200099
1631192864233,31088,243362,200129
1631192864243,31065,243314,200128
1631192864253,31045,243292,200115
1631192864263,31032,243293,200120
1631192864273,31018,243340,200123
1631192864283,31011,243335,200118
1631192864293,31016,243349,200118
1631192864303,30997,243289,200132
1631192864313,30991,243293,200145
1631192864323,30973,243304,200125
1631192864333,30966,243268,200136
1631192864343,30961,243314,200135
1631192864353,30957,243255,200139
1631192864363,30945,243250,200150
1631192864373,30941,243268,200117
1631192864383,30938,243232,200129
1631192864393,30923,243232,200141
1631192864403,30909,243244,200118
1631192864413,30909,243250,200133
1631192864423,30905,243218,200126
1631192864433,30910,243239,200110
1631192864443,30905,243217,200115
1631192864453,30894,243208,200114
1631192864463,30902,243189,200106
1631192864473,30897,243172,200090
1631192864483,30890,243180,200090
1631192864493,30887,243162,200072
1631192864503,30886,243158,200060
1631192864513,30884,243184,200083
1631192864523,30882,243143,200068
1631192864533,30874,243114,200065
1631192864543,30887,243147,200075
1631192864553,30874,243132,200074
1631192864563,30874,243111,200076
1631192864573,30874,243095,200061
1631192864583,30886,243108,200076
1631192864593,30882,243123,200070
1631192864603,30882,243105,200065
1631192864613,30889,243112,200039
1631192864623,30886,243100,200067
1631192864633,30889,243140,200056
1631192864643,30890,243102,200028
1631192864653,30898,243114,200037
1631192864663,30904,243096,200061
1631192864673,30898,243120,200052
1631192864683,30904,243104,200053
1631192864693,30907,243108,200069
1631192864703,30914,243127,200050
1631192864713,30920,243161,200033
1631192864723,30918,243107,200051
1631192864733,30925,243125,200048
1631192864743,30920,243150,200069
1631192864753,30927,243133,200069
1631192864763,30927,243146,200056
1631192864773,30937,243166,200049
1631192864783,30960,243151,200033
1631192864793,30947,243145,200036
1631192864803,30959,243155,200046
1631192864813,30953,243168,200051
1631192864823,30962,243167,200055
1631192864833,30970,243185,200055
1631192864843,30972,243182,200076
1631192864853,30968,243203,200045
1631192864863,30975,243228,200057
1631192864873,30984,243205,200074
1631192864883,30986,243198,200059
1631192864893,30992,243232,200090
1631192864903,30993,243265,200093
1631192864913,30998,243258,200073
1631192864923,31006,243244,200068
1631192864933,31016,243244,200089
1631192864943,31032,243291,200075
1631192864953,31029,243266,200086
1631192864963,31033,243293,200112
1631192864973,31030,243303,200093
1631192864983,31037,243299,200119
1631192864993,31048,243317,200105
1631192865003,31043,243317,200092
1631192865013,31056,243331,200110
1631192865023,31056,243339,200117
1631192865033,31064,243390,200101
1631192865043,31068,243356,200096
1631192865053,31080,243380,200121
1631192865063,31081,243388,200107
1631192865073,31087,243393,200128
1631192865083,31100,243414,200137
1631192865093,31094,243402,200110
1631192865103,31095,243411,200141
1631192865113,31087,243390,200104
1631192865123,31085,243403,200134
1631192865133,31077,243348,200130
1631192865143,31055,243365,200139
1631192865153,31038,243330,200139
1631192865163,31015,243352,200144
1631192865173,30987,243303,200118
1631192865183,30973,243298,200144
1631192865193,30952,243289,200156
1631192865203,30938,243263,200132
1631192865213,30921,243271,200155
1631192865223,30906,243282,200160
1631192865233,30898,243264,200133
1631192865243,30889,243222,200160
1631192865253,30892,243252,200162
1631192865263,30878,243198,200179
1631192865273,30858,243220,200154
1631192865283,30859,243218,200158
1631192865293,30846,243212,200133
1631192865303,30836,243192,200176
1631192865313,30834,243170,200162
1631192865323,30821,243143,200154
1631192865333,30817,243107,200133
1631192865343,30817,243125,200127
1631192865353,30811,243110,200152
1631192865363,30809,243113,200134
1631192865373,30808,243076,200124
1631192865383,30811,243100,200103
1631192865393,30812,243072,200114
1631192865403,30810,243062,200091
1631192865413,30811,243056,200114
1631192865423,30804,243038,200076
1631192865433,30801,243019,200093
1631192865443,30793,243062,200071
1631192865453,30787,243022,200079
1631192865463,30786,243004,200076
1631192865473,30778,242998,200079
1631192865483,30782,242982,200072
1631192865493,30784,243031,200057
1631192865503,30784,242954,200040
1631192865513,30781,242972,200052
1631192865523,30786,242976,200060
1631192865533,30779,242953,200035
1631192865543,30791,242933,200040
1631192865553,30783,242956,200045
1631192865563,30791,242951,200037
1631192865573,30797,242966,200032
1631192865583,30796,242933,200009
1631192865593,30805,242956,200014
1631192865603,30809,242942,200018
1631192865613,30795,242926,200013
1631192865623,30806,242928,200008
1631192865633,30805,242935,200015
1631192865643,30813,242929,200006
1631192865653,30816,242961,200011
1631192865663,30823,242953,199991
1631192865673,30825,242967,199995
1631192865683,30835,242951,200000
1631192865693,30833,242987,199999
1631192865703,30844,242984,200028
1631192865713,30837,242973,200019
1631192865723,30846,242983,199999
1631192865733,30847,242978,200007
1631192865743,30843,242970,199985
1631192865753,30855,242999,200013
1631192865763,30857,242973,200006
1631192865773,30871,243003,200009
1631192865783,30873,243004,200018
1631192865793,30886,243042,199998
1631192865803,30887,243007,200002
1631192865813,30895,243050,200010
1631192865823,30897,243048,199980
1631192865833,30895,243044,200012
1631192865843,30909,243056,200016
1631192865853,30911,243068,200004
1631192865863,30911,243096,200024
1631192865873,30922,243097,200026
1631192865883,30924,243119,200017
1631192865893,30938,243104,200006
1631192865903,30937,243150,200010
1631192865913,30949,243186,200030
1631192865923,30958,243183,200039
1631192865933,30962,243177,200029
1631192865943,30967,243223,200058
1631192865953,30975,243248,200028
1631192865963,30980,243249,200021
1631192865973,30984,243283,200041
1631192865983,30988,243258,200068
1631192865993,31007,243268,200052
1631192866003,31008,243268,200080
1631192866013,31008,243286,200063
1631192866023,31020,243278,200057
1631192866033,31018,243309,200062
1631192866043,31030,243305,200073
1631192866053,31015,243337,200103
1631192866063,31023,243311,200068
1631192866073,31010,243315,200104
1631192866083,30997,243311,200099
1631192866093,30965,243244,200098
1631192866103,30945,243225,200081
1631192866113,30924,243208,200068
1631192866123,30907,243185,200076
1631192866133,30886,243176,200056
1631192866143,30863,243168,200083
1631192866153,30852,243158,200089
1631192866163,30845,243153,200060
1631192866173,30828,243137,200081
1631192866183,30823,243126,200076
1631192866193,30812,243134,200082
1631192866203,30795,243141,200062
1631192866213,30801,243096,200079
1631192866223,30792,243092,200076
1631192866233,30779,243120,200076
1631192866243,30770,243097,200072
1631192866253,30761,243070,200071
1631192866263,30740,243033,200068
1631192866273,30738,243075,200071
1631192866283,30733,243050,200068
1631192866293,30722,243041,200072
1631192866303,30726,243039,200064
1631192866313,30719,242999,200048
1631192866323,30717,242998,200053
1631192866333,30718,243004,200068
1631192866343,30722,242987,200058
1631192866353,30724,243022,200052
1631192866363,30722,242969,200038
1631192866373,30715,242956,200049
1631192866383,30722,242977,200046
1631192866393,30718,242950,200052
1631192866403,30718,242970,200033
1631192866413,30714,242947,200042
1631192866423,30710,242953,200039
1631192866433,30713,242951,200026
1631192866443,30714,242933,200035
1631192866453,30715,242966,200040
1631192866463,30722,242903,200013
1631192866473,30722,242927,200033
1631192866483,30722,242954,200038
1631192866493,30719,242958,200029
1631192866503,30732,242953,200012
1631192866513,30730,242944,200044
1631192866523,30735,242906,200027
1631192866533,30753,242935,200014
1631192866543,30748,242979,200020
1631192866553,30750,242956,200026
1631192866563,30759,242978,200025
1631192866573,30755,242951,200046
1631192866583,30759,242966,200027
1631192866593,30765,242954,200011
1631192866603,30773,242979,200010
1631192866613,30779,242985,200023
1631192866623,30781,242979,200040
1631192866633,30795,242966,200025
1631192866643,30787,243008,200041
1631192866653,30801,242989,200024
1631192866663,30792,242999,200024
1631192866673,30805,242998,200033
1631192866683,30809,243052,200032
1631192866693,30813,243000,200018
1631192866703,30820,243007,200049
1631192866713,30836,243012,200048
1631192866723,30838,243041,200041
1631192866733,30848,243078,200065
1631192866743,30848,243035,200051
1631192866753,30851,243044,200060
1631192866763,30863,243063,200074
1631192866773,30871,243104,200037
1631192866783,30876,243113,200068
1631192866793,30882,243119,200072
1631192866803,30887,243107,200041
1631192866813,30891,243139,200077
1631192866823,30899,243143,200071
1631192866833,30904,243148,200073
1631192866843,30914,243162,200087
1631192866853,30918,243171,200089
1631192866863,30924,243220,200117
1631192866873,30932,243182,200115
1631192866883,30945,243230,200115
1631192866893,30953,243200,200139
1631192866903,30941,243207,200101
1631192866913,30960,243245,200141
1631192866923,30972,243275,200099
1631192866933,30975,243289,200125
1631192866943,30980,243292,200121
1631192866953,30990,243323,200101
1631192866963,30999,243313,200111
1631192866973,30997,243332,200136
1631192866983,31010,243369,200157
1631192866993,31016,243353,200141
1631192867003,31017,243360,200136
1631192867013,31025,243400,200143
1631192867023,31041,243398,200170
1631192867033,31038,243390,200138
1631192867043,31042,243372,200139
1631192867053,31038,243415,200154
1631192867063,31019,243348,200173
1631192867073,30999,243369,200177
1631192867083,30991,243340,200180
1631192867093,30969,243332,200195
1631192867103,30952,243338,200168
1631192867113,30933,243287,200181
1631192867123,30921,243264,200178
1631192867133,30895,243298,200184
1631192867143,30891,243238,200182
1631192867153,30877,243239,200160
1631192867163,30873,243256,200185
1631192867173,30862,243244,200165
1631192867183,30843,243225,200189
1631192867193,30844,243234,200167
1631192867203,30832,243193,200184
1631192867213,30833,243172,200172
1631192867223,30821,243167,200162
1631192867233,30804,243142,200186
1631192867243,30789,243161,200162
1631192867253,30790,243129,200147
1631192867263,30789,243111,200150
1631192867273,30780,243114,200150
1631192867283,30774,243128,200153
1631192867293,30771,243108,200148
1631192867303,30769,243086,200136
1631192867313,30775,243077,200133
1631192867323,30774,243038,200138
1631192867333,30775,243037,200125
1631192867343,30773,243064,200119
1631192867353,30777,243075,200127
1631192867363,30778,243028,200098
1631192867373,30769,243045,200126
1631192867383,30772,243041,200093
1631192867393,30767,242995,200099
1631192867403,30767,243027,200103
1631192867413,30771,243011,200101
1631192867423,30773,242987,200104
1631192867433,30769,242990,200097
1631192867443,30774,243002,200088
1631192867453,30775,242964,200065
1631192867463,30781,242975,200086
1631192867473,30781,242984,200116
1631192867483,30785,242962,200069
1631192867493,30783,242982,200073
1631192867503,30790,242999,200084
1631192867513,30797,242963,200074
1631192867523,30797,242989,200081
1631192867533,30807,242978,200051
1631192867543,30808,242930,200078
1631192867553,30806,242971,200070
1631192867563,30810,242999,200080
1631192867573,30826,242957,200061
1631192867583,30826,242971,200066
1631192867593,30842,242988,200067
1631192867603,30839,242994,200074
1631192867613,30839,243035,200058
1631192867623,30843,243014,200036
1631192867633,30849,243032,200077
1631192867643,30850,243034,200058
1631192867653,30857,243075,200068
1631192867663,30862,243051,200047
1631192867673,30868,243034,200041
1631192867683,30875,243050,200060
1631192867693,30879,243046,200073
1631192867703,30895,243071,200097
1631192867713,30895,243091,200085
1631192867723,30904,243103,200072
1631192867733,30905,243103,200081
1631192867743,30915,243107,200062
1631192867753,30925,243121,200098
1631192867763,30926,243181,200091
1631192867773,30933,243157,200083
1631192867783,30931,243149,200098
1631192867793,30940,243170,200104
1631192867803,30948,243174,200109
1631192867813,30956,243203,200122
1631192867823,30962,243205,200112
1631192867833,30976,243246,200122
1631192867843,30979,243221,200109
1631192867853,30991,243273,200116
1631192867863,30993,243257,200133
1631192867873,31002,243256,200137
1631192867883,31003,243253,200150
1631192867893,31011,243305,200140
1631192867903,31019,243292,200148
1631192867913,31029,243362,200136
1631192867923,31039,243358,200167
1631192867933,31044,243385,200162
1631192867943,31049,243338,200140
1631192867953,31054,243386,200173
1631192867963,31056,243365,200146
1631192867973,31065,243380,200159
1631192867983,31064,243412,200141
1631192867993,31068,243406,200166
1631192868003,31089,243407,200181
1631192868013,31106,243423,200189
1631192868023,31103,243439,200211
1631192868033,31117,243498,200172
1631192868043,31112,243504,200175
1631192868053,31129,243484,200206
1631192868063,31133,243537,200210
1631192868073,31141,243555,200213
1631192868083,31147,243552,200217
1631192868093,31148,243534,200200
1631192868103,31136,243542,200209
1631192868113,31123,243530,200232
1631192868123,31110,243478,200198
1631192868133,31087,243469,200225
1631192868143,31070,243485,200235
1631192868153,31049,243419,200212
1631192868163,31028,243416,200232
1631192868173,31016,243415,200254
1631192868183,31005,243412,200225
1631192868193,30989,243413,200209
1631192868203,30996,243417,200229
1631192868213,30980,243387,200218
1631192868223,30966,243367,200241
1631192868233,30961,243377,200227
1631192868243,30951,243365,200236
1631192868253,30948,243349,200246
1631192868263,30944,243354,200209
1631192868273,30930,243301,200208
1631192868283,30922,243329,200224
1631192868293,30909,243295,200214
1631192868303,30899,243301,200209
1631192868313,30896,243259,200202
1631192868323,30889,243263,200183
1631192868333,30867,243245,200181
1631192868343,30875,243251,200192
1631192868353,30882,243209,200194
1631192868363,30871,243203,200177
1631192868373,30876,243197,200144
1631192868383,30875,243192,200162
1631192868393,30878,243177,200176
1631192868403,30866,243158,200151
1631192868413,30874,243145,200148
1631192868423,30859,243112,200143
1631192868433,30862,243146,200136
1631192868443,30860,243110,200146
1631192868453,30853,243100,200128
1631192868463,30852,243126,200123
1631192868473,30855,243105,200111
1631192868483,30850,243097,200107
1631192868493,30857,243081,200101
1631192868503,30871,243090,200137
1631192868513,30853,243130,200101
1631192868523,30866,243093,200109
1631192868533,30866,243048,200123
1631192868543,30865,243094,200117
1631192868553,30869,243095,200107
1631192868563,30873,243060,200084
1631192868573,30874,243060,200093
1631192868583,30874,243067,200084
1631192868593,30873,243042,200090
1631192868603,30871,243047,200072
1631192868613,30883,243081,200098
1631192868623,30882,243082,200088
1631192868633,30893,243059,200067
1631192868643,30893,243059,200063
1631192868653,30899,243074,200067
1631192868663,30894,243052,200071
1631192868673,30912,243103,200070
1631192868683,30911,243105,200059
1631192868693,30916,243059,200072
1631192868703,30916,243084,200071
1631192868713,30917,243101,200076
1631192868723,30929,243096,200083
1631192868733,30928,243093,200083
1631192868743,30934,243106,200096
1631192868753,30939,243134,200072
1631192868763,30940,243117,200086
1631192868773,30954,243121,200088
1631192868783,30954,243174,200090
1631192868793,30957,243114,200084
1631192868803,30969,243147,200073
1631192868813,30962,243200,200081
1631192868823,30977,243211,200104
1631192868833,30972,243162,200074
1631192868843,30985,243191,200092
1631192868853,30995,243188,200101
1631192868863,30996,243211,200127
1631192868873,30999,243250,200092
1631192868883,31009,243240,200113
1631192868893,31012,243238,200118
1631192868903,31017,243249,200123
1631192868913,31024,243257,200119
1631192868923,31030,243265,200133
1631192868933,31036,243276,200120
1631192868943,31040,243317,200150
1631192868953,31040,243313,200133
1631192868963,31047,243313,200142
1631192868973,31058,243319,200141
1631192868983,31060,243305,200128
1631192868993,31068,243330,200149
1631192869003,31076,243357,200169
1631192869013,31087,243379,200147
1631192869023,31092,243383,200160
1631192869033,31091,243404,200153
1631192869043,31101,243431,200189
1631192869053,31109,243416,200163
1631192869063,31108,243442,200163
1631192869073,31124,243450,200182
1631192869083,31127,243471,200170
1631192869093,31131,243502,200181
1631192869103,31133,243460,200176
1631192869113,31133,243481,200164
1631192869123,31132,243452,200176
1631192869133,31115,243473,200206
1631192869143,31102,243452,200200
1631192869153,31084,243416,200184
1631192869163,31069,243379,200205
1631192869173,31044,243373,200170
1631192869183,31019,243323,200208
1631192869193,30995,243369,200186
1631192869203,30987,243299,200183
1631192869213,30966,243296,200186
1631192869223,30955,243274,200179
1631192869233,30943,243261,200168
1631192869243,30932,243269,200171
1631192869253,30919,243242,200187
1631192869263,30907,243240,200181
1631192869273,30889,243204,200162
1631192869283,30886,243199,200140
1631192869293,30876,243192,200154
1631192869303,30866,243156,200150
1631192869313,30852,243114,200138
1631192869323,30835,243090,200131
1631192869333,30829,243138,200140
1631192869343,30815,243073,200139
1631192869353,30803,243070,200129
1631192869363,30801,243059,200093
1631192869373,30797,243051,200095
1631192869383,30787,243005,200115
1631192869393,30786,243016,200101
1631192869403,30784,242994,200108
1631192869413,30781,242997,200087
1631192869423,30781,242979,200088
1631192869433,30776,242976,200055
1631192869443,30769,242950,200082
1631192869453,30780,242919,200041
1631192869463,30770,242906,200037
1631192869473,30756,242935,200038
1631192869483,30756,242889,200068
1631192869493,30767,242904,200056
1631192869503,30755,242868,200035
1631192869513,30755,242837,200058
1631192869523,30755,242871,200037
1631192869533,30760,242861,200046
1631192869543,30761,242889,200035
1631192869553,30760,242854,200013
1631192869563,30752,242862,200023
1631192869573,30766,242838,200017
1631192869583,30769,242828,200023
1631192869593,30774,242854,200008
1631192869603,30774,242853,200004
1631192869613,30781,242821,200030
1631192869623,30780,242869,200012
1631192869633,30776,242832,199995
1631192869643,30786,242875,200014
1631192869653,30800,242831,199999
1631192869663,30786,242841,200005
1631192869673,30796,242885,199989
1631192869683,30801,242881,200016
1631192869693,30809,242873,200012
1631192869703,30805,242898,200005
1631192869713,30808,242875,200011
1631192869723,30822,242915,200028
1631192869733,30820,242903,200017
1631192869743,30824,242893,200025
1631192869753,30827,242910,200014
1631192869763,30832,242911,200004
1631192869773,30841,242875,200026
1631192869783,30841,242974,200016
1631192869793,30853,242950,200032
1631192869803,30859,242930,200023
1631192869813,30863,242951,200031
1631192869823,30864,242957,200027
1631192869833,30870,242939,200029
1631192869843,30880,243003,200043
1631192869853,30879,242966,200042
1631192869863,30889,243017,200037
1631192869873,30892,243003,200068
1631192869883,30899,243039,200033
1631192869893,30908,243027,200065
1631192869903,30911,243036,200048
1631192869913,30920,243069,200062
1631192869923,30927,243070,200097
1631192869933,30925,243076,200060
1631192869943,30922,243103,200093
1631192869953,30935,243092,200086
1631192869963,30950,243142,200061
1631192869973,30956,243108,200109
1631192869983,30959,243172,200083
1631192869993,30964,243144,200085
1631192870003,30979,243201,200097
1631192870013,30977,243166,200087
1631192870023,30988,243188,200099
1631192870033,30993,243194,200089
1631192870043,30998,243249,200134
1631192870053,31003,243237,200129
1631192870063,31009,243280,200115
1631192870073,31018,243250,200139
1631192870083,31029,243265,200123
1631192870093,31032,243289,200109
1631192870103,31040,243308,200151
1631192870113,31047,243334,200126
1631192870123,31048,243348,200162
1631192870133,31061,243343,200147
1631192870143,31072,243344,200158
1631192870153,31071,243381,200168
1631192870163,31078,243401,200170
1631192870173,31078,243414,200159
1631192870183,31098,243450,200169
1631192870193,31104,243485,200183
1631192870203,31103,243458,200183
1631192870213,31123,243456,200190
1631192870223,31123,243501,200178
1631192870233,31132,243479,200190
1631192870243,31137,243530,200179
1631192870253,31126,243487,200188
1631192870263,31130,243449,200191
1631192870273,31108,243456,200205
1631192870283,31095,243452,200212
1631192870293,31078,243406,200196
1631192870303,31042,243350,200194
1631192870313,31015,243375,200212
1631192870323,30988,243307,200195
1631192870333,30978,243327,200216
1631192870343,30956,243273,200193
1631192870353,30933,243282,200181
1631192870363,30927,243292,200182
1631192870373,30908,243245,200161
1631192870383,30904,243229,200178
1631192870393,30886,243282,200183
1631192870403,30874,243197,200172
1631192870413,30861,243204,200181
1631192870423,30850,243161,200187
1631192870433,30847,243162,200178
1631192870443,30826,243145,200145
1631192870453,30814,243077,200144
1631192870463,30798,243120,200136
1631192870473,30786,243059,200133
1631192870483,30775,243057,200126
1631192870493,30772,243057,200130
1631192870503,30770,243025,200127
1631192870513,30764,243038,200128
1631192870523,30759,243009,200099
1631192870533,30755,242960,200087
1631192870543,30747,242969,200089
1631192870553,30747,242923,200091
1631192870563,30744,242937,200073
1631192870573,30746,242948,200074
1631192870583,30741,242917,200062
1631192870593,30727,242899,200044
1631192870603,30733,242894,200054
1631192870613,30724,242862,200049
1631192870623,30741,242901,200047
1631192870633,30726,242836,200059
1631192870643,30727,242840,200030
1631192870653,30725,242846,200047
1631192870663,30722,242797,200026
1631192870673,30728,242842,200063
1631192870683,30727,242798,200050
1631192870693,30727,242845,200038
1631192870703,30723,242859,200034
1631192870713,30732,242816,200040
1631192870723,30728,242827,200030
1631192870733,30732,242865,200017
1631192870743,30737,242845,200033
1631192870753,30737,242847,200009
1631192870763,30745,242805,200008
1631192870773,30743,242829,199995
1631192870783,30751,242830,199993
1631192870793,30755,242819,200010
1631192870803,30760,242842,199998
1631192870813,30765,242836,200024
1631192870823,30766,242825,200012
1631192870833,30773,242839,200028
1631192870843,30779,242851,199996
1631192870853,30779,242865,200027
1631192870863,30778,242882,200026
1631192870873,30786,242817,200023
1631192870883,30786,242873,200045
1631192870893,30795,242872,200022
1631192870903,30802,242879,200011
1631192870913,30817,242889,200022
1631192870923,30815,242890,200012
1631192870933,30817,242918,200039
1631192870943,30829,242902,200052
1631192870953,30829,242900,200026
1631192870963,30833,242952,200069
1631192870973,30841,242942,200036
1631192870983,30847,242982,200038
1631192870993,30856,242999,200060
1631192871003,30856,242985,200045
1631192871013,30868,242992,200082
1631192871023,30861,243042,200056
1631192871033,30882,243019,200090
1631192871043,30880,243044,200067
1631192871053,30886,243023,200061
1631192871063,30893,243085,200079
1631192871073,30911,243090,200095
1631192871083,30917,243101,200076
1631192871093,30913,243142,200080
1631192871103,30926,243093,200106
1631192871113,30927,243133,200111
1631192871123,30931,243119,200097
1631192871133,30938,243145,200080
1631192871143,30949,243171,200104
1631192871153,30960,243187,200114
1631192871163,30962,243180,200115
1631192871173,30970,243186,200136
1631192871183,30974,243220,200103
1631192871193,30988,243231,200126
1631192871203,30989,243229,200136
1631192871213,31003,243290,200133
1631192871223,31013,243304,200131
1631192871233,31008,243284,200137
1631192871243,31031,243322,200155
1631192871253,31029,243317,200150
1631192871263,31048,243375,200168
1631192871273,31038,243380,200161
1631192871283,31047,243353,200179
1631192871293,31058,243382,200183
1631192871303,31062,243407,200173
1631192871313,31077,243402,200184
1631192871323,31085,243446,200183
1631192871333,31089,243464,200184
1631192871343,31093,243464,200196
1631192871353,31097,243453,200187
1631192871363,31102,243478,200183
1631192871373,31109,243456,200190
1631192871383,31104,243456,200213
1631192871393,31112,243425,200211
1631192871403,31086,243447,200213
1631192871413,31070,243410,200217
1631192871423,31046,243373,200210
1631192871433,31021,243370,200222
1631192871443,30989,243329,200181
1631192871453,30967,243308,200198
1631192871463,30950,243270,200181
1631192871473,30930,243270,200186
1631192871483,30918,243240,200204
1631192871493,30901,243240,200190
1631192871503,30889,243224,200179
1631192871513,30878,243168,200185
1631192871523,30863,243143,200157
1631192871533,30855,243173,200175
1631192871543,30842,243178,200163
1631192871553,30838,243134,200145
1631192871563,30835,243108,200187
1631192871573,30822,243080,200184
1631192871583,30817,243086,200162
1631192871593,30796,243057,200144
1631192871603,30787,243065,200118
1631192871613,30783,243043,200136
1631192871623,30780,243009,200136
1631192871633,30774,242996,200127
1631192871643,30771,242973,200128
1631192871653,30765,242981,200137
1631192871663,30767,242963,200130
1631192871673,30762,242922,200086
1631192871683,30765,242923,200092
1631192871693,30760,242925,200096
1631192871703,30754,242901,200083
1631192871713,30747,242914,200065
1631192871723,30749,242916,200075
1631192871733,30753,242882,200088
1631192871743,30763,242836,200055
1631192871753,30753,242896,200070
1631192871763,30743,242838,200046
1631192871773,30748,242863,200063
1631192871783,30745,242840,200043
1631192871793,30750,242843,200051
1631192871803,30754,242847,200053
1631192871813,30751,242811,200061
1631192871823,30748,242823,200048
1631192871833,30761,242854,200032
1631192871843,30761,242858,200027
1631192871853,30762,242837,200036
1631192871863,30764,242814,200026
1631192871873,30767,242838,200032
1631192871883,30780,242838,200043
1631192871893,30774,242808,200028
1631192871903,30779,242810,200023
1631192871913,30784,242851,200022
1631192871923,30793,242879,200028
1631192871933,30792,242874,200029
1631192871943,30795,242861,200026
1631192871953,30807,242858,200056
1631192871963,30806,242884,200025
1631192871973,30817,242875,200044
1631192871983,30825,242915,200060
1631192871993,30821,242930,200016
1631192872003,30833,242913,200059
1631192872013,30839,242906,200038
1631192872023,30849,242926,200045
1631192872033,30851,242970,200043
1631192872043,30867,242953,200053
1631192872053,30859,242962,200058
1631192872063,30870,242938,200058
1631192872073,30874,242976,200065
1631192872083,30888,242986,200052
1631192872093,30889,243010,200073
1631192872103,30886,243005,200057
1631192872113,30902,243064,200090
1631192872123,30906,243040,200078
1631192872133,30920,243079,200089
1631192872143,30919,243083,200083
1631192872153,30929,243062,200071
1631192872163,30935,243089,200100
1631192872173,30937,243127,200110
1631192872183,30944,243111,200097
1631192872193,30953,243131,200105
1631192872203,30958,243160,200124
1631192872213,30962,243164,200119
1631192872223,30967,243193,200112
1631192872233,30987,243179,200112
1631192872243,30990,243189,200109
1631192872253,31003,243203,200138
1631192872263,31002,243218,200132
1631192872273,31016,243247,200129
1631192872283,31024,243252,200155
1631192872293,31028,243298,200146
1631192872303,31033,243290,200129
1631192872313,31040,243290,200176
1631192872323,31053,243335,200153
1631192872333,31061,243354,200155
1631192872343,31060,243340,200159
1631192872353,31074,243369,200177
1631192872363,31087,243369,200185
1631192872373,31083,243384,200142
1631192872383,31091,243437,200178
1631192872393,31114,243414,200204
1631192872403,31112,243441,200189
1631192872413,31115,243450,200192
1631192872423,31119,243463,200178
1631192872433,31131,243516,200210
1631192872443,31142,243538,200202
1631192872453,31155,243528,200206
1631192872463,31160,243544,200197
1631192872473,31167,243567,200239
1631192872483,31161,243490,200200
1631192872493,31164,243536,200196
1631192872503,31150,243509,200225
1631192872513,31139,243467,200224
1631192872523,31117,243450,200221
1631192872533,31098,243444,200232
1631192872543,31073,243384,200234
1631192872553,31046,243342,200220
1631192872563,31029,243300,200222
1631192872573,31009,243334,200212
1631192872583,30994,243307,200191
1631192872593,30973,243264,200203
1631192872603,30969,243270,200206
1631192872613,30953,243273,200202
1631192872623,30937,243256,200203
1631192872633,30936,243215,200191
1631192872643,30927,243227,200180
1631192872653,30924,243172,200177
1631192872663,30906,243184,200162
1631192872673,30904,243141,200165
1631192872683,30885,243139,200163
1631192872693,30893,243108,200165
1631192872703,30887,243099,200143
1631192872713,30879,243077,200126
1631192872723,30868,243069,200163
1631192872733,30858,243059,200130
1631192872743,30856,243047,200121
1631192872753,30859,243039,200116
1631192872763,30855,243018,200099
1631192872773,30849,243008,200115
1631192872783,30856,242992,200109
1631192872793,30849,242992,200100
1631192872803,30849,242971,200102
1631192872813,30850,242938,200104
1631192872823,30846,242967,200092
1631192872833,30847,242942,200073
1631192872843,30842,242930,200063
1631192872853,30841,242935,200081
1631192872863,30840,242954,200057
1631192872873,30839,242948,200048
1631192872883,30847,242927,200075
1631192872893,30849,242891,200051
1631192872903,30841,242913,200059
1631192872913,30847,242899,200089
1631192872923,30848,242916,200054
1631192872933,30852,242916,200056
1631192872943,30851,242899,200062
1631192872953,30860,242911,200038
1631192872963,30862,242933,200038
1631192872973,30859,242940,200056
1631192872983,30870,242957,200053
1631192872993,30874,242932,200068
1631192873003,30879,242968,200055
1631192873013,30878,242958,200063
1631192873023,30898,242957,200038
1631192873033,30891,242956,200042
1631192873043,30901,242981,200061
1631192873053,30902,242938,200080
1631192873063,30911,242950,200059
1631192873073,30911,242995,200048
1631192873083,30919,243025,200072
1631192873093,30925,243000,200060
1631192873103,30934,243051,200082
1631192873113,30939,243030,200068
1631192873123,30941,243026,200064
1631192873133,30949,243029,200064
1631192873143,30957,243086,200067
1631192873153,30964,243058,200080
1631192873163,30965,243109,200091
1631192873173,30981,243089,200058
1631192873183,30992,243116,200079
1631192873193,30985,243145,200082
1631192873203,31005,243116,200092
1631192873213,31004,243126,200114
1631192873223,31010,243149,200110
1631192873233,31019,243162,200116
1631192873243,31021,243163,200116
1631192873253,31027,243153,200116
1631192873263,31034,243223,200115
1631192873273,31042,243201,200116
1631192873283,31049,243240,200132
1631192873293,31055,243265,200118
1631192873303,31063,243238,200153
1631192873313,31067,243289,200137
1631192873323,31085,243300,200138
1631192873333,31093,243303,200156
1631192873343,31099,243315,200173
1631192873353,31102,243359,200161
1631192873363,31118,243358,200163
1631192873373,31119,243383,200152
1631192873383,31120,243375,200157
1631192873393,31128,243399,200176
1631192873403,31139,243409,200175
1631192873413,31145,243424,200188
1631192873423,31148,243467,200207
1631192873433,31160,243463,200189
1631192873443,31180,243488,200213
1631192873453,31180,243500,200196
1631192873463,31191,243526,200203
1631192873473,31198,243544,200218
1631192873483,31206,243548,200205
1631192873493,31221,243536,200226
1631192873503,31224,243602,200223
1631192873513,31245,243610,200212
1631192873523,31238,243620,200217
1631192873533,31242,243657,200233
1631192873543,31250,243675,200244
1631192873553,31260,243655,200258
1631192873563,31265,243672,200236
1631192873573,31274,243662,200247
1631192873583,31266,243665,200249
1631192873593,31264,243633,200269
1631192873603,31251,243585,200229
1631192873613,31226,243560,200243
1631192873623,31207,243528,200232
1631192873633,31181,243500,200252
1631192873643,31153,243490,200266
1631192873653,31139,243436,200242
1631192873663,31116,243450,200216
1631192873673,31084,243418,200235
1631192873683,31078,243370,200218
1631192873693,31061,243345,200204
1631192873703,31049,243358,200198
1631192873713,31033,243332,200190
1631192873723,31032,243316,200212
1631192873733,31013,243316,200187
1631192873743,31012,243286,200185
1631192873753,31003,243282,200174
1631192873763,30996,243255,200149
1631192873773,30977,243219,200175
1631192873783,30972,243206,200157
1631192873793,30972,243179,200155
1631192873803,30958,243188,200148
1631192873813,30950,243159,200143
1631192873823,30955,243148,200136
1631192873833,30950,243132,200117
1631192873843,30951,243153,200124
1631192873853,30939,243125,200102
1631192873863,30948,243097,200111
1631192873873,30937,243058,200102
1631192873883,30937,243102,200089
1631192873893,30933,243074,200078
1631192873903,30929,243104,200082
1631192873913,30928,243097,200082
1631192873923,30924,243071,200060
1631192873933,30917,243012,200076
1631192873943,30921,243043,200077
1631192873953,30912,243008,200059
1631192873963,30914,243031,200085
1631192873973,30913,243047,200062
1631192873983,30911,243032,200057
1631192873993,30907,243000,200064
1631192874003,30918,243020,200061
1631192874013,30906,243026,200068
1631192874023,30915,243008,200072
1631192874033,30936,243010,200082
1631192874043,30931,243031,200036
1631192874053,30933,243062,200041
1631192874063,30935,243046,200044
1631192874073,30938,243021,200062
1631192874083,30950,243049,200059
1631192874093,30949,243019,200051
1631192874103,30949,243082,200058
1631192874113,30951,243035,200037
1631192874123,30955,243061,200069
1631192874133,30963,243044,200043
1631192874143,30965,243071,200062
1631192874153,30968,243074,200057
1631192874163,30985,243099,200070
1631192874173,30984,243108,200040
1631192874183,30990,243096,200053
1631192874193,30992,243164,200064
1631192874203,30999,243173,200092
1631192874213,31009,243136,200075
1631192874223,31010,243161,200075
1631192874233,31018,243166,200082
1631192874243,31029,243185,200068
1631192874253,31039,243204,200098
1631192874263,31032,243198,200099
1631192874273,31039,243225,200096
1631192874283,31042,243226,200090
1631192874293,31052,243240,200120
1631192874303,31066,243265,200100
1631192874313,31065,243233,200085
1631192874323,31070,243299,200121
1631192874333,31086,243286,200115
1631192874343,31078,243296,200141
1631192874353,31093,243321,200132
1631192874363,31101,243336,200126
1631192874373,31106,243349,200123
1631192874383,31113,243352,200140
1631192874393,31138,243395,200104
1631192874403,31129,243404,200137
1631192874413,31142,243405,200137
1631192874423,31149,243427,200154
1631192874433,31149,243434,200162
1631192874443,31156,243462,200181
1631192874453,31164,243433,200154
1631192874463,31173,243506,200167
1631192874473,31176,243510,200167
1631192874483,31194,243529,200185
1631192874493,31198,243520,200183
1631192874503,31206,243544,200207
1631192874513,31212,243567,200214
1631192874523,31216,243574,200201
1631192874533,31227,243617,200234
1631192874543,31231,243640,200213
1631192874553,31234,243643,200222
1631192874563,31249,243664,200230
1631192874573,31256,243683,200237
1631192874583,31265,243705,200244
1631192874593,31266,243696,200237
1631192874603,31270,243723,200217
1631192874613,31277,243738,200226
1631192874623,31284,243753,200235
1631192874633,31273,243740,200218
1631192874643,31278,243722,200218
1631192874653,31273,243728,200207
1631192874663,31274,243658,200212
1631192874673,31246,243668,200205
1631192874683,31219,243644,200199
1631192874693,31195,243599,200204
1631192874703,31174,243534,200201
1631192874713,31144,243552,200186
1631192874723,31110,243494,200181
1631192874733,31097,243504,200189
1631192874743,31077,243494,200152
1631192874753,31058,243468,200171
1631192874763,31042,243448,200163
1631192874773,31032,243468,200172
1631192874783,31020,243463,200164
1631192874793,31015,243452,200168
1631192874803,30998,243411,200162
1631192874813,30994,243415,200157
1631192874823,30989,243438,200147
1631192874833,30978,243387,200153
1631192874843,30971,243396,200148
1631192874853,30962,243386,200145
1631192874863,30951,243351,200160
1631192874873,30945,243336,200139
1631192874883,30932,243331,200136
1631192874893,30940,243325,200139
1631192874903,30929,243360,200124
1631192874913,30928,243313,200135
1631192874923,30927,243320,200126
1631192874933,30932,243276,200143
1631192874943,30927,243315,200125
1631192874953,30920,243309,200157
1631192874963,30919,243263,200144
1631192874973,30932,243274,200129
1631192874983,30922,243280,200103
1631192874993,30916,243282,200125
1631192875003,30915,243264,200144
1631192875013,30916,243238,200136
1631192875023,30915,243240,200137
1631192875033,30920,243240,200140
1631192875043,30915,243217,200156
1631192875053,30916,243242,200153
1631192875063,30921,243244,200151
1631192875073,30919,243262,200140
1631192875083,30920,243269,200135
1631192875093,30920,243267,200140
1631192875103,30924,243211,200159
1631192875113,30929,243232,200130
1631192875123,30920,243261,200158
1631192875133,30933,243262,200124
1631192875143,30942,243283,200140
1631192875153,30940,243248,200152
1631192875163,30942,243310,200152
1631192875173,30946,243293,200158
1631192875183,30951,243321,200157
1631192875193,30969,243312,200161
1631192875203,30965,243313,200178
1631192875213,30966,243322,200152
1631192875223,30976,243358,200188
1631192875233,30976,243330,200174
1631192875243,30987,243373,200188
1631192875253,30988,243370,200188
1631192875263,30994,243408,200202
1631192875273,30994,243388,200206
1631192875283,31018,243394,200208
1631192875293,31017,243456,200183
1631192875303,31023,243449,200193
1631192875313,31029,243458,200217
1631192875323,31044,243451,200214
1631192875333,31046,243462,200194
1631192875343,31050,243469,200209
1631192875353,31060,243526,200220
1631192875363,31065,243471,200224
1631192875373,31073,243522,200250
1631192875383,31073,243495,200218
1631192875393,31081,243562,200246
1631192875403,31087,243555,200257
1631192875413,31091,243543,200247
1631192875423,31098,243574,200253
1631192875433,31110,243592,200264
1631192875443,31125,243620,200253
1631192875453,31130,243623,200267
1631192875463,31125,243673,200265
1631192875473,31126,243648,200294
1631192875483,31142,243652,200293
1631192875493,31153,243678,200301
1631192875503,31153,243681,200286
1631192875513,31169,243699,200283
1631192875523,31169,243717,200301
1631192875533,31179,243732,200310
1631192875543,31188,243754,200331
1631192875553,31198,243812,200302
1631192875563,31201,243768,200321
1631192875573,31211,243803,200340
1631192875583,31212,243824,200349
1631192875593,31217,243807,200334
1631192875603,31239,243860,200327
1631192875613,31236,243829,200362
1631192875623,31245,243809,200346
1631192875633,31234,243830,200320
1631192875643,31221,243815,200329
1631192875653,31219,243759,200345
1631192875663,31198,243767,200339
1631192875673,31175,243741,200321
1631192875683,31155,243687,200328
1631192875693,31126,243607,200308
1631192875703,31091,243585,200326
1631192875713,31069,243533,200299
1631192875723,31045,243543,200286
1631192875733,31027,243507,200280
1631192875743,31014,243500,200280
1631192875753,30997,243514,200276
1631192875763,30988,243465,200273
1631192875773,30972,243473,200290
1631192875783,30974,243422,200279
1631192875793,30957,243464,200276
1631192875803,30961,243448,200254
1631192875813,30949,243435,200240
1631192875823,30948,243411,200253
1631192875833,30938,243361,200245
1631192875843,30926,243390,200230
1631192875853,30922,243314,200246
1631192875863,30920,243360,200239
1631192875873,30918,243323,200223
1631192875883,30908,243319,200223
1631192875893,30904,243310,200217
1631192875903,30906,243314,200205
1631192875913,30902,243283,200203
1631192875923,30896,243266,200187
1631192875933,30883,243236,200214
1631192875943,30896,243259,200217
1631192875953,30899,243229,200207
1631192875963,30893,243242,200189
1631192875973,30884,243241,200168
1631192875983,30880,243231,200189
1631192875993,30870,243220,200169
1631192876003,30875,243196,200171
1631192876013,30874,243201,200194
1631192876023,30858,243218,200158
1631192876033,30867,243213,200184
1631192876043,30867,243193,200174
1631192876053,30870,243215,200179
1631192876063,30873,243180,200166
1631192876073,30875,243214,200161
1631192876083,30880,243176,200170
1631192876093,30876,243198,200191
1631192876103,30886,243197,200191
1631192876113,30891,243197,200170
1631192876123,30887,243195,200165
1631192876133,30895,243200,200177
1631192876143,30903,243203,200168
1631192876153,30905,243235,200182
1631192876163,30903,243192,200173
1631192876173,30912,243241,200186
1631192876183,30906,243245,200166
1631192876193,30919,243280,200183
1631192876203,30921,243233,200191
1631192876213,30928,243269,200193
1631192876223,30927,243252,200185
1631192876233,30935,243269,200184
1631192876243,30938,243263,200181
1631192876253,30949,243310,200189
1631192876263,30949,243293,200176
1631192876273,30952,243325,200207
1631192876283,30971,243299,200193
1631192876293,30974,243287,200205
1631192876303,30976,243324,200192
1631192876313,30976,243328,200178
1631192876323,30988,243348,200192
1631192876333,30994,243335,200194
1631192876343,31000,243385,200189
1631192876353,31002,243384,200218
1631192876363,31012,243381,200215
1631192876373,31015,243415,200222
1631192876383,31019,243416,200226
1631192876393,31022,243460,200222
1631192876403,31031,243418,200211
1631192876413,31031,243423,200212
1631192876423,31047,243462,200225
1631192876433,31058,243447,200225
1631192876443,31067,243488,200231
1631192876453,31064,243492,200229
1631192876463,31067,243445,200222
1631192876473,31083,243492,200222
1631192876483,31077,243502,200217
1631192876493,31087,243496,200232
1631192876503,31078,243491,200231
1631192876513,31069,243468,200220
1631192876523,31050,243412,200223
1631192876533,31020,243355,200220
1631192876543,30995,243322,200216
1631192876553,30963,243279,200199
1631192876563,30938,243177,200210
1631192876573,30917,243199,200181
1631192876583,30884,243205,200189
1631192876593,30870,243156,200183
1631192876603,30836,243092,200182
1631192876613,30820,243173,200175
1631192876623,30817,243087,200168
1631192876633,30809,243097,200186
1631192876643,30800,243079,200146
1631192876653,30787,243028,200146
1631192876663,30779,243037,200154
1631192876673,30770,243017,200139
1631192876683,30762,242981,200135
1631192876693,30750,242974,200139
1631192876703,30739,242984,200101
1631192876713,30731,242935,200126
1631192876723,30722,242934,200114
1631192876733,30719,242878,200086
1631192876743,30713,242901,200108
1631192876753,30711,242907,200110
1631192876763,30707,242904,200099
1631192876773,30709,242865,200096
1631192876783,30703,242902,200095
1631192876793,30716,242833,200087
1631192876803,30710,242867,200083
1631192876813,30700,242858,200078
1631192876823,30706,242846,200083
1631192876833,30702,242834,200086
1631192876843,30699,242799,200078
1631192876853,30698,242852,200077
1631192876863,30694,242777,200064
1631192876873,30691,242821,200060
1631192876883,30690,242834,200067
1631192876893,30693,242790,200059
1631192876903,30703,242839,200080
1631192876913,30692,242809,200063
1631192876923,30700,242821,200079
1631192876933,30704,242808,200053
1631192876943,30711,242796,200065
1631192876953,30703,242803,200084
1631192876963,30708,242843,200081
1631192876973,30719,242774,200054
1631192876983,30720,242798,200065
1631192876993,30724,242808,200072
1631192877003,30735,242791,200044
1631192877013,30737,242819,200078
1631192877023,30733,242780,200057
1631192877033,30748,242829,200073
1631192877043,30745,242842,200083
1631192877053,30751,242827,200065
1631192877063,30762,242878,200074
1631192877073,30774,242822,200070
1631192877083,30763,242835,200077
1631192877093,30770,242851,200073
1631192877103,30776,242874,200081
1631192877113,30788,242852,200066
1631192877123,30794,242903,200085
1631192877133,30799,242884,200082
1631192877143,30810,242888,200072
1631192877153,30818,242898,200084
1631192877163,30823,242944,200086
1631192877173,30824,242931,200102
1631192877183,30828,242943,200106
1631192877193,30844,242958,200106
1631192877203,30847,242997,200129
1631192877213,30853,243031,200123
1631192877223,30854,243013,200131
1631192877233,30853,243057,200130
1631192877243,30871,243071,200142
1631192877253,30883,243083,200124
1631192877263,30885,243082,200163
1631192877273,30891,243077,200148
1631192877283,30897,243112,200170
1631192877293,30903,243103,200144
1631192877303,30908,243099,200139
1631192877313,30917,243114,200172
1631192877323,30928,243133,200172
1631192877333,30940,243152,200172
1631192877343,30936,243159,200177
1631192877353,30951,243166,200164
1631192877363,30954,243206,200177
1631192877373,30956,243169,200169
1631192877383,30956,243163,200158
1631192877393,30951,243127,200176
1631192877403,30913,243097,200173
1631192877413,30881,243028,200155
1631192877423,30861,243012,200148
1631192877433,30833,242984,200143
1631192877443,30806,242935,200148
1631192877453,30774,242911,200128
1631192877463,30761,242867,200103
1631192877473,30737,242842,200115
1631192877483,30721,242767,200103
1631192877493,30706,242786,200101
1631192877503,30693,242803,200093
1631192877513,30679,242730,200082
1631192877523,30671,242758,200060
1631192877533,30660,242722,200070
1631192877543,30660,242655,200081
1631192877553,30647,242659,200074
1631192877563,30638,242666,200071
1631192877573,30626,242633,200064
1631192877583,30610,242630,200067
1631192877593,30589,242598,200044
1631192877603,30596,242582,200034
1631192877613,30586,242535,200045
1631192877623,30586,242524,200028
1631192877633,30586,242511,200052
1631192877643,30576,242524,200011
1631192877653,30578,242528,200044
1631192877663,30579,242491,200019
1631192877673,30573,242488,199999
1631192877683,30575,242487,200006
1631192877693,30575,242481,199988
1631192877703,30572,242431,199987
1631192877713,30566,242457,199992
1631192877723,30570,242447,200001
1631192877733,30560,242466,199998
1631192877743,30574,242428,199962
1631192877753,30560,242442,199987
1631192877763,30560,242417,199994
1631192877773,30567,242425,199988
1631192877783,30573,242432,199987
1631192877793,30575,242427,199989
1631192877803,30568,242397,199971
1631192877813,30576,242426,199952
1631192877823,30579,242410,199963
1631192877833,30578,242405,199974
1631192877843,30583,242403,199955
1631192877853,30588,242401,199958
1631192877863,30593,242419,199968
1631192877873,30603,242459,199963
1631192877883,30586,242423,199962
1631192877893,30611,242437,199944
1631192877903,30615,242452,199956
1631192877913,30610,242450,199966
1631192877923,30627,242429,199964
1631192877933,30628,242492,199992
1631192877943,30639,242460,199980
1631192877953,30643,242460,199953
1631192877963,30653,242449,199979
1631192877973,30659,242510,199954
1631192877983,30659,242509,199958
1631192877993,30663,242519,199975
1631192878003,30677,242499,199976
1631192878013,30685,242522,199985
1631192878023,30686,242567,200001
1631192878033,30695,242561,199974
1631192878043,30708,242601,199981
1631192878053,30723,242608,199986
1631192878063,30718,242598,199991
1631192878073,30722,242601,200012
1631192878083,30730,242616,200000
1631192878093,30737,242620,200006
1631192878103,30748,242669,200010
1631192878113,30754,242617,200006
1631192878123,30761,242654,200011
1631192878133,30770,242689,200013
1631192878143,30772,242681,200006
1631192878153,30782,242709,200020
1631192878163,30788,242714,200032
1631192878173,30794,242752,200030
1631192878183,30803,242755,200010
1631192878193,30814,242780,200018
1631192878203,30819,242795,200040
1631192878213,30838,242795,200063
1631192878223,30838,242834,200037
1631192878233,30845,242760,200036
1631192878243,30842,242786,200019
1631192878253,30829,242814,200029
1631192878263,30819,242741,200042
1631192878273,30801,242708,200046
1631192878283,30775,242702,200037
1631192878293,30751,242636,200031
1631192878303,30726,242625,200023
1631192878313,30706,242584,200028
1631192878323,30683,242582,200017
1631192878333,30668,242555,200026
1631192878343,30652,242577,200041
1631192878353,30628,242540,200010
1631192878363,30621,242527,200024
1631192878373,30621,242530,200027
1631192878383,30613,242516,199988
1631192878393,30597,242483,199997
1631192878403,30588,242467,199997
1631192878413,30587,242424,200012
1631192878423,30582,242426,199996
1631192878433,30567,242445,199994
1631192878443,30553,242379,199989
1631192878453,30549,242380,199992
1631192878463,30537,242368,199974
1631192878473,30541,242370,199981
1631192878483,30537,242365,199956
1631192878493,30539,242360,199973
1631192878503,30535,242342,199966
1631192878513,30540,242349,199963
1631192878523,30544,242325,199955
1631192878533,30541,242346,199981
1631192878543,30541,242331,199945
1631192878553,30552,242310,199970
1631192878563,30550,242312,199948
1631192878573,30546,242313,199948
1631192878583,30545,242315,199954
1631192878593,30541,242296,199928
1631192878603,30550,242292,199941
1631192878613,30551,242317,199946
1631192878623,30558,242290,199940
1631192878633,30552,242284,199941
1631192878643,30561,242324,199926
1631192878653,30560,242295,199943
1631192878663,30566,242300,199944
1631192878673,30558,242348,199967
1631192878683,30583,242330,199958
1631192878693,30573,242357,199941
1631192878703,30592,242329,199949
1631192878713,30591,242336,199928
1631192878723,30592,242332,199963
1631192878733,30595,242338,199948
1631192878743,30613,242331,199951
1631192878753,30618,242350,199942
1631192878763,30621,242375,199946
1631192878773,30622,242370,199954
1631192878783,30635,242378,199956
1631192878793,30635,242429,199964
1631192878803,30645,242416,199968
1631192878813,30655,242436,199965
1631192878823,30664,242446,199960
1631192878833,30662,242444,199967
1631192878843,30674,242452,199974
1631192878853,30681,242473,200004
1631192878863,30692,242487,199978
1631192878873,30703,242519,199975
1631192878883,30706,242475,199962
1631192878893,30711,242545,200001
1631192878903,30715,242529,199993
1631192878913,30728,242538,199983
1631192878923,30734,242557,200017
1631192878933,30739,242594,200010
1631192878943,30743,242572,200017
1631192878953,30762,242606,200012
1631192878963,30767,242608,200017
1631192878973,30768,242669,200012
1631192878983,30775,242652,200029
1631192878993,30790,242685,200032
1631192879003,30807,242680,200046
1631192879013,30805,242695,200039
1631192879023,30813,242726,200045
1631192879033,30809,242709,200039
1631192879043,30830,242746,200057
1631192879053,30836,242800,200063
1631192879063,30847,242773,200062
1631192879073,30851,242777,200075
1631192879083,30839,242782,200064
1631192879093,30831,242775,200081
1631192879103,30815,242713,200085
1631192879113,30790,242677,200067
1631192879123,30774,242661,200061
1631192879133,30746,242641,200052
1631192879143,30727,242637,200060
1631192879153,30708,242614,200062
1631192879163,30703,242622,200074
1631192879173,30674,242584,200053
1631192879183,30674,242613,200071
1631192879193,30655,242560,200062
1631192879203,30656,242567,200024
1631192879213,30650,242575,200047
1631192879223,30640,242524,200043
1631192879233,30629,242523,200050
1631192879243,30624,242511,200047
1631192879253,30616,242504,200023
1631192879263,30609,242475,200043
1631192879273,30608,242468,200024
1631192879283,30598,242463,200033
1631192879293,30595,242471,200013
1631192879303,30591,242439,200036
1631192879313,30592,242446,200028
1631192879323,30596,242420,199986
1631192879333,30590,242440,200022
1631192879343,30584,242406,200022
1631192879353,30598,242400,199985
1631192879363,30600,242415,200006
1631192879373,30594,242382,199994
1631192879383,30588,242392,199988
1631192879393,30598,242395,199977
1631192879403,30592,242362,199975
1631192879413,30594,242387,199994
1631192879423,30596,242392,199995
1631192879433,30601,242398,200002
1631192879443,30596,242410,200030
1631192879453,30603,242349,199986
1631192879463,30606,242379,199972
1631192879473,30605,242384,199971
1631192879483,30613,242344,199962
1631192879493,30622,242353,199944
1631192879503,30627,242331,199972
1631192879513,30631,242356,199960
1631192879523,30637,242366,199946
1631192879533,30628,242353,199959
1631192879543,30642,242345,199969
1631192879553,30650,242333,199958
1631192879563,30643,242342,199936
1631192879573,30653,242336,199940
1631192879583,30648,242332,199945
1631192879593,30659,242335,199950
1631192879603,30666,242342,199937
1631192879613,30671,242369,199957
1631192879623,30676,242347,199950
1631192879633,30687,242368,199939
1631192879643,30690,242354,199964
1631192879653,30697,242357,199922
1631192879663,30694,242342,199946
1631192879673,30709,242370,199935
1631192879683,30712,242378,199952
1631192879693,30719,242348,199947
1631192879703,30725,242385,199943
1631192879713,30734,242369,199945
1631192879723,30740,242411,199972
1631192879733,30743,242413,199962
1631192879743,30751,242406,199975
1631192879753,30756,242419,199934
1631192879763,30764,242419,199960
1631192879773,30768,242440,199948
1631192879783,30783,242483,199974
1631192879793,30783,242495,199961
1631192879803,30798,242488,199986
1631192879813,30802,242495,199989
1631192879823,30813,242509,200023
1631192879833,30823,242497,199994
1631192879843,30821,242529,200007
1631192879853,30815,242497,199978
1631192879863,30818,242553,200015
1631192879873,30806,242510,200005
1631192879883,30797,242468,199999
1631192879893,30782,242499,200003
1631192879903,30768,242481,200017
1631192879913,30745,242467,199998
1631192879923,30725,242415,200017
1631192879933,30702,242436,200031
1631192879943,30686,242376,199998
1631192879953,30674,242364,200015
1631192879963,30661,242369,200009
1631192879973,30664,242347,200002
1631192879983,30642,242311,199995
1631192879993,30634,242335,199988
1631192880003,30625,242322,199967
1631192880013,30607,242310,199980
1631192880023,30606,242256,199953
1631192880033,30602,242231,199958
1631192880043,30595,242238,199963
1631192880053,30580,242231,199963
1631192880063,30569,242188,199974
1631192880073,30560,242170,199945
1631192880083,30553,242201,199964
1631192880093,30548,242186,199963
1631192880103,30544,242211,199954
1631192880113,30542,242179,199960
1631192880123,30543,242168,199935
1631192880133,30544,242173,199935
1631192880143,30557,242178,199946
1631192880153,30564,242183,199947
1631192880163,30560,242179,199941
1631192880173,30564,242165,199951
1631192880183,30557,242132,199920
1631192880193,30564,242121,199936
1631192880203,30562,242159,199963
1631192880213,30563,242142,199920
1631192880223,30564,242122,199915
1631192880233,30570,242117,199938
1631192880243,30570,242095,199912
1631192880253,30578,242131,199917
1631192880263,30582,242123,199924
1631192880273,30578,242112,199918
1631192880283,30579,242120,199913
1631192880293,30591,242149,199931
1631192880303,30596,242156,199901
1631192880313,30605,242143,199923
1631192880323,30601,242151,199912
1631192880333,30606,242152,199912
1631192880343,30606,242134,199932
1631192880353,30616,242161,199899
1631192880363,30621,242168,199918
1631192880373,30628,242187,199904
1631192880383,30637,242190,199924
1631192880393,30636,242159,199910
1631192880403,30648,242210,199931
1631192880413,30649,242210,199940
1631192880423,30657,242212,199919
1631192880433,30665,242223,199941
1631192880443,30674,242236,199937
1631192880453,30684,242228,199936
1631192880463,30683,242280,199957
1631192880473,30698,242271,199954
