timestamp,green,ir,red
1629808513052,48758,57809,57831
1629808513062,48383,90583,90614
1629808513072,48432,123363,123391
1629808513082,48476,156138,156170
1629808513092,48521,188912,188964
1629808513102,48545,221689,221725
1629808513112,48556,254290,254300
1629808513122,48542,287045,287080
1629808513132,48514,319496,319707
1629808513142,48465,329948,337042
1629808513152,48386,329792,336976
1629808513162,48320,329733,336922
1629808513172,48256,329689,336901
1629808513182,48206,329598,336888
1629808513192,48137,329589,336878
1629808513202,48107,329588,336856
1629808513212,48057,329522,336879
1629808513222,48027,329527,336879
1629808513232,47997,329523,336825
1629808513242,47976,329440,336810
1629808513252,47953,329508,336803
1629808513262,47937,329425,336798
1629808513272,47928,329433,336767
1629808513282,47915,329432,336733
1629808513292,47928,329423,336743
1629808513302,47915,329394,336703
1629808513312,47928,329407,336713
1629808513322,47933,329398,336655
1629808513332,47922,329323,336638
1629808513342,47945,329339,336633
1629808513352,47951,329289,336595
1629808513362,47957,329233,336592
1629808513372,47941,329255,336560
1629808513382,47952,329236,336542
1629808513392,47945,329259,336494
1629808513402,47953,329187,336475
1629808513412,47948,329190,336463
1629808513422,47940,329211,336455
1629808513432,47943,329127,336458
1629808513442,47950,329135,336422
1629808513452,47934,329155,336408
1629808513462,47944,329170,336419
1629808513472,47957,329174,336355
1629808513482,47960,329151,336387
1629808513492,47984,329184,336366
1629808513502,47986,329222,336374
1629808513512,47990,329217,336347
1629808513522,48010,329185,336372
1629808513532,48034,329202,336349
1629808513542,48045,329251,336363
1629808513552,48069,329261,336329
1629808513562,48094,329230,336376
1629808513572,48112,329267,336386
1629808513582,48140,329326,336348
1629808513592,48168,329343,336402
1629808513602,48203,329410,336436
1629808513612,48227,329444,336438
1629808513622,48258,329501,336425
1629808513632,48284,329518,336441
1629808513642,48313,329564,336433
1629808513652,48345,329568,336471
1629808513662,48377,329677,336445
1629808513672,48401,329618,336504
1629808513682,48440,329708,336499
1629808513692,48474,329721,336508
1629808513702,48501,329761,336507
1629808513712,48542,329750,336527
1629808513722,48566,329736,336530
1629808513732,48586,329749,336526
1629808513742,48586,329618,336475
1629808513752,48568,329556,336484
1629808513762,48523,329524,336447
1629808513772,48460,329411,336412
1629808513782,48405,329287,336421
1629808513792,48333,329220,336356
1629808513802,48259,329146,336341
1629808513812,48174,329089,336318
1629808513822,48120,329043,336278
1629808513832,48070,328995,336265
1629808513842,48022,328953,336263
1629808513852,47958,328961,336243
1629808513862,47931,328951,336268
1629808513872,47877,328888,336242
1629808513882,47859,328857,336204
1629808513892,47830,328833,336200
1629808513902,47802,328806,336181
1629808513912,47780,328766,336143
1629808513922,47752,328768,336106
1629808513932,47732,328734,336149
1629808513942,47709,328762,336131
1629808513952,47700,328742,336085
1629808513962,47698,328759,336089
1629808513972,47695,328727,336105
1629808513982,47693,328719,336070
1629808513992,47702,328660,336065
1629808514002,47691,328660,336068
1629808514012,47701,328684,336066
1629808514022,47697,328680,336040
1629808514032,47699,328652,336016
1629808514042,47702,328641,336011
1629808514052,47686,328680,336000
1629808514062,47706,328588,335968
1629808514072,47706,328654,335991
1629808514082,47694,328611,335963
1629808514092,47704,328557,335925
1629808514102,47696,328601,335961
1629808514112,47706,328662,335925
1629808514122,47704,328589,335902
1629808514132,47710,328538,335871
1629808514142,47729,328621,335888
1629808514152,47739,328638,335843
1629808514162,47755,328590,335876
1629808514172,47767,328620,335838
1629808514182,47792,328615,335848
1629808514192,47824,328665,335866
1629808514202,47829,328666,335835
1629808514212,47838,328669,335834
1629808514222,47871,328716,335865
1629808514232,47886,328718,335875
1629808514242,47917,328768,335845
1629808514252,47934,328760,335861
1629808514262,47957,328737,335861
1629808514272,47989,328773,335860
1629808514282,48013,328716,335882
1629808514292,48031,328792,335833
1629808514302,48055,328814,335857
1629808514312,48086,328878,335804
1629808514322,48106,328855,335852
1629808514332,48141,328919,335876
1629808514342,48175,328937,335857
1629808514352,48189,328902,335870
1629808514362,48217,328872,335834
1629808514372,48227,328888,335787
1629808514382,48217,328779,335784
1629808514392,48199,328691,335717
1629808514402,48148,328545,335691
1629808514412,48077,328480,335623
1629808514422,48004,328389,335586
1629808514432,47919,328266,335551
1629808514442,47842,328173,335521
1629808514452,47764,328123,335436
1629808514462,47699,328044,335431
1629808514472,47636,327988,335421
1629808514482,47584,327954,335368
1629808514492,47526,327887,335330
1629808514502,47469,327797,335279
1629808514512,47431,327718,335263
1629808514522,47364,327680,335192
1629808514532,47328,327635,335166
1629808514542,47288,327555,335103
1629808514552,47244,327526,335069
1629808514562,47195,327460,335014
1629808514572,47162,327457,334979
1629808514582,47130,327356,334984
1629808514592,47108,327403,334932
1629808514602,47092,327359,334899
1629808514612,47079,327316,334891
1629808514622,47067,327355,334830
1629808514632,47061,327283,334799
1629808514642,47050,327312,334793
1629808514652,47040,327260,334747
1629808514662,47042,327247,334710
1629808514672,47035,327239,334694
1629808514682,47027,327186,334679
1629808514692,47023,327177,334647
1629808514702,47012,327104,334636
1629808514712,47010,327143,334586
1629808514722,46997,327164,334588
1629808514732,46997,327056,334543
1629808514742,46994,327094,334529
1629808514752,46998,327079,334505
1629808514762,46993,327083,334513
1629808514772,46995,327077,334465
1629808514782,47004,327075,334412
1629808514792,47009,327025,334413
1629808514802,47024,327068,334374
1629808514812,47036,327087,334414
1629808514822,47048,327076,334385
1629808514832,47066,327132,334365
1629808514842,47082,327113,334368
1629808514852,47104,327134,334338
1629808514862,47115,327195,334375
1629808514872,47142,327187,334368
1629808514882,47155,327181,334311
1629808514892,47182,327206,334350
1629808514902,47194,327235,334344
1629808514912,47206,327233,334327
1629808514922,47232,327297,334303
1629808514932,47258,327310,334324
1629808514942,47280,327329,334346
1629808514952,47305,327372,334378
1629808514962,47337,327397,334330
1629808514972,47360,327374,334368
1629808514982,47387,327427,334353
1629808514992,47421,327422,334378
1629808515002,47448,327478,334396
1629808515012,47481,327519,334377
1629808515022,47505,327479,334392
1629808515032,47499,327432,334325
1629808515042,47486,327347,334308
1629808515052,47451,327250,334280
1629808515062,47406,327143,334277
1629808515072,47334,327066,334209
1629808515082,47268,326992,334154
1629808515092,47201,326900,334149
1629808515102,47129,326816,334112
1629808515112,47065,326758,334132
1629808515122,47008,326776,334090
1629808515132,46958,326704,334071
1629808515142,46911,326682,334076
1629808515152,46867,326616,334033
1629808515162,46824,326606,334018
1629808515172,46804,326560,334023
1629808515182,46772,326529,333994
1629808515192,46742,326470,333953
1629808515202,46703,326466,333964
1629808515212,46689,326494,334008
1629808515222,46664,326478,333955
1629808515232,46647,326462,333960
1629808515242,46637,326448,333972
1629808515252,46639,326434,333938
1629808515262,46656,326495,333958
1629808515272,46649,326491,333945
1629808515282,46661,326537,333956
1629808515292,46664,326495,333926
1629808515302,46668,326495,333978
1629808515312,46684,326500,333977
1629808515322,46693,326540,333975
1629808515332,46692,326550,333986
1629808515342,46707,326516,333982
1629808515352,46704,326519,334000
1629808515362,46726,326521,334016
1629808515372,46715,326543,334000
1629808515382,46734,326491,333992
1629808515392,46737,326563,334018
1629808515402,46757,326570,334001
1629808515412,46772,326599,334039
1629808515422,46791,326654,334045
1629808515432,46815,326630,334030
1629808515442,46832,326665,334081
1629808515452,46858,326714,334060
1629808515462,46889,326717,334077
1629808515472,46914,326750,334065
1629808515482,46938,326803,334082
1629808515492,46958,326826,334120
1629808515502,46997,326854,334129
1629808515512,47028,326900,334127
1629808515522,47059,326845,334170
1629808515532,47098,326840,334127
1629808515542,47120,326903,334207
1629808515552,47156,326948,334185
1629808515562,47182,326986,334164
1629808515572,47211,326994,334158
1629808515582,47247,327019,334155
1629808515592,47257,327015,334151
1629808515602,47280,327049,334095
1629808515612,47302,327079,334098
1629808515622,47324,327080,334060
1629808515632,47338,327088,334012
1629808515642,47361,327092,334023
1629808515652,47395,327158,334021
1629808515662,47417,327134,334003
1629808515672,47468,327131,333959
1629808515682,47482,327249,333970
1629808515692,47522,327205,333969
1629808515702,47551,327239,333985
1629808515712,47571,327248,333957
1629808515722,47576,327136,333908
1629808515732,47567,327092,333892
1629808515742,47534,327059,333913
1629808515752,47494,326961,333907
1629808515762,47436,326923,333901
1629808515772,47381,326841,333894
1629808515782,47323,326833,333898
1629808515792,47259,326799,333906
1629808515802,47221,326755,333939
1629808515812,47179,326759,333924
1629808515822,47159,326766,333989
1629808515832,47147,326739,334025
1629808515842,47127,326790,334067
1629808515852,47113,326832,334088
1629808515862,47122,326892,334158
1629808515872,47131,326939,334304
1629808515882,47137,326990,334417
1629808515892,47170,327134,334554
1629808515902,47200,327322,334719
1629808515912,47252,327520,334937
1629808515922,47306,327704,335138
1629808515932,47372,327918,335375
1629808515942,47437,328187,335604
1629808515952,47506,328412,335860
1629808515962,47581,328543,336006
1629808515972,47650,328706,336216
1629808515982,47696,328847,336317
1629808515992,47744,328983,336432
1629808516002,47784,329027,336519
1629808516012,47824,329093,336630
1629808516022,47863,329177,336707
1629808516032,47896,329168,336766
1629808516042,47930,329323,336807
1629808516052,47963,329320,336876
1629808516062,47997,329351,336925
1629808516072,48036,329412,336914
1629808516082,48072,329384,337004
1629808516092,48106,329426,337034
1629808516102,48138,329458,337050
1629808516112,48178,329479,337042
1629808516122,48217,329483,337087
1629808516132,48249,329547,337110
1629808516142,48293,329570,337155
1629808516152,48339,329624,337134
1629808516162,48372,329620,337145
1629808516172,48412,329647,337207
1629808516182,48437,329660,337206
1629808516192,48489,329678,337228
1629808516202,48510,329742,337218
1629808516212,48557,329735,337241
1629808516222,48586,329797,337240
1629808516232,48628,329802,337245
1629808516242,48668,329818,337302
1629808516252,48709,329847,337310
1629808516262,48750,329837,337318
1629808516272,48777,329871,337286
1629808516282,48821,329977,337273
1629808516292,48848,329971,337271
1629808516302,48900,329962,337327
1629808516312,48925,329998,337333
1629808516322,48952,330023,337322
1629808516332,48998,330059,337346
1629808516342,49038,330118,337333
1629808516352,49071,330136,337340
1629808516362,49110,330164,337364
1629808516372,49151,330175,337364
1629808516382,49189,330212,337358
1629808516392,49224,330197,337383
1629808516402,49255,330149,337368
1629808516412,49275,330142,337342
1629808516422,49274,330024,337319
1629808516432,49259,329954,337211
1629808516442,49231,329864,337209
1629808516452,49191,329778,337184
1629808516462,49140,329668,337114
1629808516472,49095,329632,337113
1629808516482,49050,329593,337037
1629808516492,49005,329458,337002
1629808516502,48966,329464,336992
1629808516512,48939,329408,336975
1629808516522,48904,329368,336893
1629808516532,48876,329328,336897
1629808516542,48838,329300,336843
1629808516552,48814,329250,336856
1629808516562,48781,329229,336823
1629808516572,48767,329167,336792
1629808516582,48755,329190,336763
1629808516592,48718,329189,336749
1629808516602,48712,329138,336733
1629808516612,48705,329190,336774
1629808516622,48698,329195,336773
1629808516632,48706,329202,336758
1629808516642,48708,329223,336777
1629808516652,48708,329216,336766
1629808516662,48711,329254,336799
1629808516672,48716,329245,336785
1629808516682,48716,329284,336837
1629808516692,48717,329261,336787
1629808516702,48704,329264,336810
1629808516712,48707,329213,336739
1629808516722,48693,329211,336762
1629808516732,48682,329165,336695
1629808516742,48671,329142,336695
1629808516752,48664,329177,336665
1629808516762,48663,329117,336672
1629808516772,48668,329135,336626
1629808516782,48675,329112,336635
1629808516792,48673,329133,336633
1629808516802,48683,329145,336653
1629808516812,48689,329159,336658
1629808516822,48696,329161,336630
1629808516832,48694,329162,336627
1629808516842,48704,329130,336584
1629808516852,48716,329132,336578
1629808516862,48728,329138,336552
1629808516872,48731,329148,336527
1629808516882,48752,329085,336518
1629808516892,48772,329108,336500
1629808516902,48780,329128,336511
1629808516912,48797,329154,336491
1629808516922,48821,329195,336517
1629808516932,48844,329198,336506
1629808516942,48858,329249,336493
1629808516952,48883,329210,336480
1629808516962,48909,329239,336457
1629808516972,48936,329226,336527
1629808516982,48946,329303,336510
1629808516992,48981,329337,336528
1629808517002,49003,329339,336537
1629808517012,49033,329307,336569
1629808517022,49058,329391,336569
1629808517032,49087,329423,336538
1629808517042,49112,329450,336575
1629808517052,49149,329496,336589
1629808517062,49184,329477,336619
1629808517072,49201,329588,336618
1629808517082,49239,329623,336652
1629808517092,49273,329629,336684
1629808517102,49300,329615,336673
1629808517112,49318,329561,336661
1629808517122,49318,329600,336662
1629808517132,49323,329508,336685
1629808517142,49297,329465,336627
1629808517152,49252,329308,336610
1629808517162,49182,329227,336593
1629808517172,49133,329184,336601
1629808517182,49076,329176,336596
1629808517192,49028,329145,336571
1629808517202,48969,329137,336516
1629808517212,48930,329087,336536
1629808517222,48895,329065,336532
1629808517232,48854,328999,336552
1629808517242,48809,328997,336530
1629808517252,48770,328990,336514
1629808517262,48723,328929,336500
1629808517272,48697,328937,336476
1629808517282,48644,328835,336422
1629808517292,48617,328839,336424
1629808517302,48583,328836,336438
1629808517312,48550,328781,336394
1629808517322,48514,328793,336425
1629808517332,48495,328812,336363
1629808517342,48480,328749,336371
1629808517352,48469,328799,336364
1629808517362,48456,328774,336370
1629808517372,48461,328809,336391
1629808517382,48452,328797,336354
1629808517392,48445,328790,336336
1629808517402,48444,328772,336370
1629808517412,48442,328782,336363
1629808517422,48451,328818,336386
1629808517432,48436,328785,336349
1629808517442,48436,328808,336357
1629808517452,48434,328801,336392
1629808517462,48426,328809,336341
1629808517472,48443,328841,336363
1629808517482,48439,328826,336373
1629808517492,48444,328836,336346
1629808517502,48448,328846,336348
1629808517512,48448,328858,336333
1629808517522,48461,328839,336342
1629808517532,48468,328835,336318
1629808517542,48470,328896,336309
1629808517552,48484,328888,336340
1629808517562,48498,328887,336349
1629808517572,48524,328924,336316
1629808517582,48539,328951,336370
1629808517592,48566,329002,336347
1629808517602,48579,328989,336328
1629808517612,48591,328989,336351
1629808517622,48610,329053,336344
1629808517632,48622,329038,336340
1629808517642,48655,329080,336347
1629808517652,48679,329072,336314
1629808517662,48697,329119,336378
1629808517672,48711,329136,336353
1629808517682,48739,329197,336347
1629808517692,48760,329180,336367
1629808517702,48787,329229,336387
1629808517712,48808,329219,336386
1629808517722,48826,329265,336401
1629808517732,48850,329338,336365
1629808517742,48878,329294,336392
1629808517752,48906,329317,336398
1629808517762,48941,329402,336401
1629808517772,48950,329385,336442
1629808517782,48984,329409,336431
1629808517792,49008,329465,336455
1629808517802,49034,329506,336455
1629808517812,49061,329431,336436
1629808517822,49068,329459,336398
1629808517832,49066,329379,336405
1629808517842,49040,329310,336373
1629808517852,49015,329249,336328
1629808517862,48968,329180,336308
1629808517872,48905,329087,336307
1629808517882,48841,329044,336248
1629808517892,48763,328977,336243
1629808517902,48710,328983,336218
1629808517912,48645,328882,336246
1629808517922,48607,328859,336197
1629808517932,48553,328868,336140
1629808517942,48486,328773,336167
1629808517952,48441,328698,336147
1629808517962,48391,328705,336138
1629808517972,48347,328657,336110
1629808517982,48292,328608,336070
1629808517992,48247,328582,336074
1629808518002,48190,328569,336009
1629808518012,48149,328556,336015
1629808518022,48102,328487,336021
1629808518032,48069,328414,335968
1629808518042,48039,328449,335974
1629808518052,48022,328472,335950
1629808518062,48002,328371,335899
1629808518072,47989,328465,335906
1629808518082,47981,328499,335915
1629808518092,47979,328441,335903
1629808518102,47967,328403,335873
1629808518112,47964,328364,335888
1629808518122,47946,328352,335874
1629808518132,47935,328355,335870
1629808518142,47914,328348,335865
1629808518152,47903,328368,335829
1629808518162,47909,328345,335838
1629808518172,47897,328300,335834
1629808518182,47890,328328,335794
1629808518192,47893,328351,335787
1629808518202,47886,328371,335797
1629808518212,47888,328338,335778
1629808518222,47884,328307,335794
1629808518232,47898,328336,335765
1629808518242,47907,328298,335750
1629808518252,47910,328362,335767
1629808518262,47916,328360,335781
1629808518272,47917,328383,335753
1629808518282,47926,328412,335779
1629808518292,47944,328437,335774
1629808518302,47964,328427,335780
1629808518312,47975,328440,335754
1629808518322,47990,328486,335785
1629808518332,48008,328471,335771
1629808518342,48014,328520,335758
1629808518352,48029,328548,335748
1629808518362,48048,328550,335760
1629808518372,48065,328561,335763
1629808518382,48088,328628,335813
1629808518392,48120,328623,335792
1629808518402,48150,328631,335812
1629808518412,48155,328671,335795
1629808518422,48176,328717,335792
1629808518432,48203,328724,335753
1629808518442,48222,328784,335813
1629808518452,48240,328767,335814
1629808518462,48266,328744,335794
1629808518472,48283,328761,335845
1629808518482,48310,328807,335782
1629808518492,48337,328859,335869
1629808518502,48357,328832,335824
1629808518512,48377,328874,335826
1629808518522,48405,328877,335811
1629808518532,48438,328956,335834
1629808518542,48466,328911,335835
1629808518552,48497,328972,335851
1629808518562,48506,328935,335820
1629808518572,48507,328897,335820
1629808518582,48504,328880,335830
1629808518592,48483,328800,335773
1629808518602,48439,328676,335746
1629808518612,48384,328651,335711
1629808518622,48313,328563,335678
1629808518632,48229,328428,335628
1629808518642,48152,328460,335624
1629808518652,48079,328324,335592
1629808518662,48000,328317,335577
1629808518672,47933,328259,335560
1629808518682,47864,328243,335543
1629808518692,47808,328208,335518
1629808518702,47753,328143,335529
1629808518712,47691,328136,335495
1629808518722,47633,328069,335488
1629808518732,47580,328035,335462
1629808518742,47507,327964,335451
1629808518752,47479,327941,335423
1629808518762,47416,327904,335369
1629808518772,47374,327906,335386
1629808518782,47340,327876,335409
1629808518792,47312,327941,335408
1629808518802,47297,327885,335397
1629808518812,47270,327899,335402
1629808518822,47262,327842,335360
1629808518832,47247,327877,335381
1629808518842,47242,327875,335356
1629808518852,47216,327876,335354
1629808518862,47217,327897,335390
1629808518872,47204,327829,335358
1629808518882,47193,327820,335350
1629808518892,47184,327806,335319
1629808518902,47160,327838,335358
1629808518912,47160,327828,335334
1629808518922,47153,327810,335335
1629808518932,47141,327854,335352
1629808518942,47143,327858,335354
1629808518952,47131,327832,335306
1629808518962,47133,327864,335321
1629808518972,47132,327878,335374
1629808518982,47143,327878,335355
1629808518992,47145,327872,335359
1629808519002,47164,327900,335383
1629808519012,47169,327941,335362
1629808519022,47198,327985,335385
1629808519032,47215,327981,335396
1629808519042,47219,328014,335411
1629808519052,47241,328038,335440
1629808519062,47262,328037,335448
1629808519072,47289,328115,335474
1629808519082,47322,328098,335514
1629808519092,47334,328159,335488
1629808519102,47370,328225,335518
1629808519112,47396,328197,335534
1629808519122,47419,328247,335545
1629808519132,47440,328352,335627
1629808519142,47470,328340,335594
1629808519152,47501,328363,335613
1629808519162,47517,328443,335653
1629808519172,47547,328460,335672
1629808519182,47576,328489,335680
1629808519192,47610,328561,335681
1629808519202,47647,328564,335700
1629808519212,47674,328597,335709
1629808519222,47702,328676,335776
1629808519232,47737,328665,335753
1629808519242,47770,328713,335788
1629808519252,47795,328748,335810
1629808519262,47836,328786,335799
1629808519272,47864,328826,335869
1629808519282,47879,328825,335892
1629808519292,47916,328896,335914
1629808519302,47951,328933,335930
1629808519312,47982,328967,335940
1629808519322,48022,328943,335987
1629808519332,48059,329053,335978
1629808519342,48082,329093,336022
1629808519352,48131,329093,336033
1629808519362,48170,329222,336053
1629808519372,48205,329215,336040
1629808519382,48235,329205,336049
1629808519392,48260,329200,336053
1629808519402,48265,329082,335996
1629808519412,48237,329056,335999
1629808519422,48212,328989,335963
1629808519432,48172,328888,335973
1629808519442,48098,328827,335921
1629808519452,48033,328747,335914
1629808519462,47938,328674,335876
1629808519472,47871,328647,335854
1629808519482,47792,328583,335866
1629808519492,47732,328568,335816
1629808519502,47685,328529,335797
1629808519512,47634,328494,335830
1629808519522,47576,328489,335811
1629808519532,47551,328440,335826
1629808519542,47513,328440,335799
1629808519552,47469,328339,335776
1629808519562,47426,328371,335738
1629808519572,47381,328326,335732
1629808519582,47346,328300,335768
1629808519592,47307,328297,335711
1629808519602,47284,328288,335701
1629808519612,47261,328230,335724
1629808519622,47249,328251,335732
1629808519632,47242,328304,335699
1629808519642,47232,328247,335708
1629808519652,47225,328277,335680
1629808519662,47224,328276,335731
1629808519672,47222,328245,335704
1629808519682,47231,328241,335696
1629808519692,47211,328234,335670
1629808519702,47208,328263,335690
1629808519712,47200,328185,335673
1629808519722,47197,328189,335670
1629808519732,47189,328242,335701
1629808519742,47186,328237,335670
1629808519752,47184,328193,335673
1629808519762,47183,328209,335689
1629808519772,47187,328189,335658
1629808519782,47194,328249,335660
1629808519792,47187,328253,335699
1629808519802,47197,328284,335695
1629808519812,47206,328276,335674
1629808519822,47229,328298,335687
1629808519832,47239,328301,335705
1629808519842,47249,328287,335720
1629808519852,47262,328361,335732
1629808519862,47293,328389,335746
1629808519872,47306,328380,335749
1629808519882,47331,328416,335738
1629808519892,47338,328459,335767
1629808519902,47368,328439,335782
1629808519912,47383,328484,335780
1629808519922,47412,328513,335799
1629808519932,47436,328531,335825
1629808519942,47459,328565,335789
1629808519952,47482,328597,335820
1629808519962,47508,328586,335835
1629808519972,47533,328607,335884
1629808519982,47557,328652,335860
1629808519992,47589,328683,335896
1629808520002,47623,328757,335894
1629808520012,47659,328767,335911
1629808520022,47694,328783,335928
1629808520032,47725,328819,335950
1629808520042,47749,328848,335952
1629808520052,47782,328902,335969
1629808520062,47808,328894,335975
1629808520072,47838,328921,335993
1629808520082,47866,328935,336000
1629808520092,47895,329014,336020
1629808520102,47932,329007,336032
1629808520112,47960,329044,336034
1629808520122,47987,329044,336087
1629808520132,48024,329103,336096
1629808520142,48068,329186,336094
1629808520152,48097,329169,336109
1629808520162,48128,329201,336093
1629808520172,48166,329228,336131
1629808520182,48207,329271,336120
1629808520192,48215,329230,336087
1629808520202,48194,329103,336078
1629808520212,48170,329046,336065
1629808520222,48132,329009,336015
1629808520232,48069,328912,336022
1629808520242,47981,328752,335992
1629808520252,47916,328742,335965
1629808520262,47848,328655,335928
1629808520272,47788,328606,335907
1629808520282,47722,328583,335921
1629808520292,47670,328576,335931
1629808520302,47625,328469,335907
1629808520312,47594,328490,335909
1629808520322,47550,328464,335896
1629808520332,47515,328500,335873
1629808520342,47497,328435,335873
1629808520352,47467,328431,335866
1629808520362,47449,328430,335806
1629808520372,47424,328412,335893
1629808520382,47400,328363,335892
1629808520392,47384,328372,335854
1629808520402,47379,328420,335881
1629808520412,47374,328395,335901
1629808520422,47377,328397,335867
1629808520432,47387,328414,335834
1629808520442,47382,328406,335875
1629808520452,47395,328406,335829
1629808520462,47386,328444,335842
1629808520472,47392,328440,335865
1629808520482,47390,328439,335856
1629808520492,47395,328418,335872
1629808520502,47380,328440,335846
1629808520512,47396,328375,335853
1629808520522,47400,328387,335844
1629808520532,47392,328400,335854
1629808520542,47404,328356,335843
1629808520552,47404,328399,335799
1629808520562,47410,328398,335881
1629808520572,47421,328423,335866
1629808520582,47430,328380,335840
1629808520592,47439,328443,335861
1629808520602,47455,328460,335879
1629808520612,47477,328498,335868
1629808520622,47495,328496,335907
1629808520632,47514,328541,335884
1629808520642,47532,328575,335907
1629808520652,47567,328581,335919
1629808520662,47594,328589,335942
1629808520672,47609,328594,335932
1629808520682,47652,328671,335957
1629808520692,47664,328688,335932
1629808520702,47706,328713,335934
1629808520712,47740,328759,335965
1629808520722,47757,328754,335970
1629808520732,47791,328781,335986
1629808520742,47817,328815,336035
1629808520752,47857,328831,335993
1629808520762,47882,328852,336016
1629808520772,47914,328901,336037
1629808520782,47948,328929,336051
1629808520792,47979,328967,336060
1629808520802,48012,328984,336071
1629808520812,48053,329005,336122
1629808520822,48081,328998,336076
1629808520832,48102,329071,336093
1629808520842,48145,329086,336109
1629808520852,48183,329192,336115
1629808520862,48203,329166,336119
1629808520872,48258,329202,336158
1629808520882,48285,329267,336166
1629808520892,48314,329255,336156
1629808520902,48353,329283,336183
1629808520912,48375,329279,336182
1629808520922,48417,329332,336182
1629808520932,48454,329354,336178
1629808520942,48488,329342,336206
1629808520952,48526,329422,336217
1629808520962,48563,329446,336228
1629808520972,48577,329427,336222
1629808520982,48581,329272,336211
1629808520992,48582,329250,336152
1629808521002,48546,329149,336127
1629808521012,48499,329076,336104
1629808521022,48435,328990,336082
1629808521032,48366,328957,336038
1629808521042,48298,328850,336012
1629808521052,48229,328805,336022
1629808521062,48168,328746,335991
1629808521072,48105,328698,335948
1629808521082,48048,328663,335962
1629808521092,48007,328650,335995
1629808521102,47958,328582,335959
1629808521112,47918,328551,335944
1629808521122,47886,328551,335926
1629808521132,47855,328585,335920
1629808521142,47815,328475,335911
1629808521152,47788,328493,335904
1629808521162,47770,328492,335851
1629808521172,47732,328472,335873
1629808521182,47720,328413,335873
1629808521192,47697,328428,335878
1629808521202,47690,328421,335896
1629808521212,47691,328403,335866
1629808521222,47684,328406,335913
1629808521232,47675,328410,335864
1629808521242,47682,328442,335858
1629808521252,47690,328435,335872
1629808521262,47689,328436,335867
1629808521272,47692,328432,335830
1629808521282,47696,328365,335847
1629808521292,47697,328412,335848
1629808521302,47692,328403,335821
1629808521312,47702,328411,335860
1629808521322,47708,328410,335845
1629808521332,47706,328404,335836
1629808521342,47717,328387,335816
1629808521352,47724,328426,335887
1629808521362,47729,328411,335860
1629808521372,47738,328455,335857
1629808521382,47752,328443,335880
1629808521392,47774,328488,335867
1629808521402,47783,328484,335854
1629808521412,47804,328491,335853
1629808521422,47823,328477,335880
1629808521432,47842,328518,335873
1629808521442,47870,328546,335886
1629808521452,47913,328573,335854
1629808521462,47925,328603,335919
1629808521472,47956,328625,335888
1629808521482,47969,328671,335914
1629808521492,48018,328717,335905
1629808521502,48044,328694,335940
1629808521512,48060,328726,335943
1629808521522,48094,328755,335961
1629808521532,48117,328864,335993
1629808521542,48154,328823,335972
1629808521552,48185,328814,336006
1629808521562,48227,328893,335982
1629808521572,48259,328909,336044
1629808521582,48289,328892,336030
1629808521592,48319,328962,336001
1629808521602,48352,329033,336046
1629808521612,48384,328993,335993
1629808521622,48429,329020,336007
1629808521632,48467,329087,336050
1629808521642,48509,329136,336061
1629808521652,48528,329149,336084
1629808521662,48577,329173,336072
1629808521672,48613,329226,336108
1629808521682,48642,329240,336109
1629808521692,48684,329274,336137
1629808521702,48703,329306,336117
1629808521712,48745,329318,336151
1629808521722,48774,329365,336149
1629808521732,48817,329399,336203
1629808521742,48845,329438,336179
1629808521752,48887,329460,336217
1629808521762,48924,329465,336236
1629808521772,48961,329489,336244
1629808521782,49003,329583,336283
1629808521792,49038,329588,336245
1629808521802,49083,329533,336209
1629808521812,49090,329510,336198
1629808521822,49073,329411,336197
1629808521832,49059,329354,336190
1629808521842,49017,329253,336134
1629808521852,48969,329170,336132
1629808521862,48905,329051,336093
1629808521872,48845,329044,336077
1629808521882,48773,328956,336081
1629808521892,48724,328894,336068
1629808521902,48675,328837,336017
1629808521912,48628,328804,336039
1629808521922,48583,328794,335979
1629808521932,48551,328792,335979
1629808521942,48516,328749,336023
1629808521952,48477,328733,335964
1629808521962,48451,328682,335924
1629808521972,48412,328637,335935
1629808521982,48390,328626,335944
1629808521992,48369,328601,335940
1629808522002,48341,328593,335902
1629808522012,48329,328582,335939
1629808522022,48314,328554,335947
1629808522032,48293,328561,335870
1629808522042,48293,328566,335885
1629808522052,48298,328574,335904
1629808522062,48301,328595,335879
1629808522072,48311,328628,335919
1629808522082,48315,328558,335906
1629808522092,48313,328668,335937
1629808522102,48320,328652,335921
1629808522112,48324,328635,335901
1629808522122,48340,328638,335925
1629808522132,48342,328611,335946
1629808522142,48338,328655,335906
1629808522152,48352,328661,335919
1629808522162,48356,328629,335944
1629808522172,48365,328649,335915
1629808522182,48370,328680,335925
1629808522192,48375,328662,336000
1629808522202,48391,328697,335939
1629808522212,48410,328759,335959
1629808522222,48429,328814,336006
1629808522232,48442,328749,336016
1629808522242,48461,328789,335984
1629808522252,48485,328825,336042
1629808522262,48514,328857,336018
1629808522272,48540,328877,336027
1629808522282,48572,328898,336023
1629808522292,48598,328934,336089
1629808522302,48618,328967,336110
1629808522312,48660,329057,336134
1629808522322,48675,329102,336121
1629808522332,48726,329059,336154
1629808522342,48745,329138,336123
1629808522352,48781,329158,336206
1629808522362,48809,329159,336177
1629808522372,48845,329235,336180
1629808522382,48881,329283,336211
1629808522392,48922,329309,336227
1629808522402,48949,329327,336265
1629808522412,48989,329364,336275
1629808522422,49024,329409,336239
1629808522432,49056,329444,336272
1629808522442,49079,329490,336280
1629808522452,49130,329555,336291
1629808522462,49169,329555,336295
1629808522472,49210,329553,336322
1629808522482,49243,329641,336329
1629808522492,49275,329621,336339
1629808522502,49318,329691,336391
1629808522512,49350,329770,336372
1629808522522,49389,329755,336427
1629808522532,49416,329822,336441
1629808522542,49452,329831,336440
1629808522552,49498,329837,336436
1629808522562,49541,329898,336479
1629808522572,49578,329934,336475
1629808522582,49610,329991,336538
1629808522592,49650,330010,336541
1629808522602,49704,330063,336513
1629808522612,49730,330093,336529
1629808522622,49767,330170,336534
1629808522632,49797,330150,336546
1629808522642,49821,330083,336535
1629808522652,49833,330020,336493
1629808522662,49805,329915,336515
1629808522672,49790,329898,336462
1629808522682,49742,329778,336399
1629808522692,49696,329689,336417
1629808522702,49637,329611,336389
1629808522712,49573,329611,336400
1629808522722,49523,329537,336357
1629808522732,49478,329498,336348
1629808522742,49432,329428,336344
1629808522752,49404,329455,336354
1629808522762,49379,329448,336359
1629808522772,49349,329409,336360
1629808522782,49318,329417,336376
1629808522792,49309,329393,336364
1629808522802,49299,329402,336351
1629808522812,49272,329403,336328
1629808522822,49261,329361,336333
1629808522832,49245,329407,336300
1629808522842,49223,329397,336313
1629808522852,49215,329365,336356
1629808522862,49208,329354,336304
1629808522872,49207,329352,336310
1629808522882,49208,329363,336381
1629808522892,49222,329431,336347
1629808522902,49221,329429,336330
1629808522912,49229,329460,336383
1629808522922,49235,329454,336321
1629808522932,49255,329413,336384
1629808522942,49255,329418,336389
1629808522952,49251,329453,336362
1629808522962,49258,329443,336339
1629808522972,49271,329459,336343
1629808522982,49271,329431,336342
1629808522992,49259,329446,336349
1629808523002,49273,329480,336335
1629808523012,49284,329484,336326
1629808523022,49289,329490,336317
1629808523032,49298,329520,336332
1629808523042,49328,329555,336342
1629808523052,49337,329514,336340
1629808523062,49350,329526,336364
1629808523072,49360,329585,336332
1629808523082,49381,329590,336322
1629808523092,49407,329615,336345
1629808523102,49426,329652,336333
1629808523112,49434,329622,336369
1629808523122,49469,329711,336395
1629808523132,49489,329731,336384
1629808523142,49514,329708,336370
1629808523152,49539,329748,336409
1629808523162,49554,329784,336433
1629808523172,49592,329876,336427
1629808523182,49617,329854,336427
1629808523192,49635,329872,336420
1629808523202,49671,329957,336432
1629808523212,49696,329948,336432
1629808523222,49726,329992,336458
1629808523232,49747,330006,336454
1629808523242,49775,330044,336480
1629808523252,49811,330049,336461
1629808523262,49839,330069,336496
1629808523272,49861,330138,336493
1629808523282,49899,330171,336517
1629808523292,49924,330171,336533
1629808523302,49960,330256,336540
1629808523312,49986,330251,336553
1629808523322,50018,330255,336528
1629808523332,50057,330340,336585
1629808523342,50087,330366,336585
1629808523352,50113,330384,336585
1629808523362,50145,330368,336614
1629808523372,50170,330467,336623
1629808523382,50204,330435,336634
1629808523392,50240,330476,336652
1629808523402,50281,330553,336675
1629808523412,50321,330557,336683
1629808523422,50345,330577,336682
1629808523432,50376,330621,336679
1629808523442,50396,330558,336651
1629808523452,50404,330463,336603
1629808523462,50376,330385,336600
1629808523472,50345,330286,336566
1629808523482,50280,330210,336546
1629808523492,50237,330111,336542
1629808523502,50177,330044,336499
1629808523512,50115,330014,336510
1629808523522,50057,329985,336490
1629808523532,50005,329954,336493
1629808523542,49966,329883,336466
1629808523552,49918,329927,336466
1629808523562,49895,329912,336453
1629808523572,49853,329858,336448
1629808523582,49849,329891,336427
1629808523592,49820,329886,336453
1629808523602,49808,329888,336433
1629808523612,49792,329850,336449
1629808523622,49765,329835,336449
1629808523632,49756,329811,336462
1629808523642,49744,329901,336482
1629808523652,49736,329861,336422
1629808523662,49728,329876,336474
1629808523672,49723,329907,336476
1629808523682,49732,329900,336485
1629808523692,49720,329942,336439
1629808523702,49730,329971,336464
1629808523712,49742,329986,336498
1629808523722,49743,329966,336522
1629808523732,49752,329975,336478
1629808523742,49744,330004,336505
1629808523752,49737,329991,336507
1629808523762,49721,330007,336490
1629808523772,49740,329974,336476
1629808523782,49736,329972,336481
1629808523792,49728,329966,336486
1629808523802,49729,329946,336508
1629808523812,49733,330039,336490
1629808523822,49735,329987,336492
1629808523832,49741,330042,336471
1629808523842,49756,330053,336471
1629808523852,49748,330055,336493
1629808523862,49767,330093,336499
1629808523872,49780,330117,336472
1629808523882,49789,330144,336540
1629808523892,49806,330167,336505
1629808523902,49822,330143,336531
1629808523912,49845,330197,336530
1629808523922,49867,330221,336552
1629808523932,49884,330309,336551
1629808523942,49901,330292,336574
1629808523952,49927,330306,336592
1629808523962,49940,330354,336598
1629808523972,49956,330395,336639
1629808523982,49975,330351,336582
1629808523992,49999,330389,336632
1629808524002,50029,330471,336605
1629808524012,50060,330451,336639
1629808524022,50080,330503,336654
1629808524032,50100,330542,336697
1629808524042,50123,330527,336653
1629808524052,50148,330592,336668
1629808524062,50175,330607,336673
1629808524072,50193,330646,336703
1629808524082,50213,330676,336694
1629808524092,50244,330706,336710
1629808524102,50285,330743,336724
1629808524112,50302,330768,336741
1629808524122,50325,330820,336707
1629808524132,50346,330786,336750
1629808524142,50374,330858,336746
1629808524152,50406,330935,336753
1629808524162,50437,330977,336752
1629808524172,50465,330990,336823
1629808524182,50491,330972,336779
1629808524192,50510,330982,336812
1629808524202,50518,330903,336773
1629808524212,50495,330838,336731
1629808524222,50468,330755,336723
1629808524232,50417,330657,336723
1629808524242,50354,330556,336702
1629808524252,50266,330486,336669
1629808524262,50176,330487,336618
1629808524272,50134,330359,336638
1629808524282,50049,330334,336640
1629808524292,49997,330333,336652
1629808524302,49942,330293,336606
1629808524312,49901,330327,336623
1629808524322,49856,330278,336548
1629808524332,49811,330225,336625
1629808524342,49770,330165,336574
1629808524352,49742,330170,336563
1629808524362,49710,330172,336573
1629808524372,49687,330162,336515
1629808524382,49653,330142,336554
1629808524392,49626,330124,336503
1629808524402,49600,330121,336528
1629808524412,49586,330179,336507
1629808524422,49571,330180,336511
1629808524432,49565,330137,336517
1629808524442,49558,330165,336482
1629808524452,49549,330149,336510
1629808524462,49548,330136,336508
1629808524472,49540,330146,336489
1629808524482,49525,330163,336455
1629808524492,49528,330122,336477
1629808524502,49518,330110,336484
1629808524512,49516,330102,336475
1629808524522,49501,330096,336451
1629808524532,49488,330101,336473
1629808524542,49484,330059,336439
1629808524552,49472,330098,336441
1629808524562,49470,330083,336469
1629808524572,49470,330080,336452
1629808524582,49459,330102,336455
1629808524592,49471,330153,336509
1629808524602,49468,330121,336474
1629808524612,49480,330167,336475
1629808524622,49480,330153,336468
1629808524632,49491,330172,336455
1629808524642,49515,330192,336488
1629808524652,49518,330182,336468
1629808524662,49536,330181,336503
1629808524672,49554,330227,336490
1629808524682,49564,330282,336507
1629808524692,49577,330240,336484
1629808524702,49602,330372,336477
1629808524712,49621,330385,336507
1629808524722,49625,330392,336495
1629808524732,49666,330420,336524
1629808524742,49686,330399,336547
1629808524752,49709,330472,336572
1629808524762,49728,330439,336538
1629808524772,49748,330499,336548
1629808524782,49763,330528,336575
1629808524792,49785,330554,336576
1629808524802,49816,330619,336592
1629808524812,49842,330573,336632
1629808524822,49861,330635,336633
1629808524832,49888,330677,336633
1629808524842,49908,330673,336612
1629808524852,49937,330697,336618
1629808524862,49949,330743,336683
1629808524872,49989,330770,336630
1629808524882,49999,330806,336658
1629808524892,50051,330855,336706
1629808524902,50064,330866,336672
1629808524912,50091,330899,336701
1629808524922,50119,330939,336699
1629808524932,50146,330993,336702
1629808524942,50168,330967,336703
1629808524952,50180,330853,336714
1629808524962,50179,330839,336686
1629808524972,50168,330774,336647
1629808524982,50119,330694,336632
1629808524992,50062,330587,336588
1629808525002,49995,330463,336565
1629808525012,49908,330395,336504
1629808525022,49804,330279,336505
1629808525032,49724,330269,336512
1629808525042,49639,330139,336468
1629808525052,49552,330147,336439
1629808525062,49465,330095,336451
1629808525072,49411,330017,336434
1629808525082,49342,330028,336388
1629808525092,49274,329950,336363
1629808525102,49215,329887,336373
1629808525112,49154,329894,336280
1629808525122,49102,329817,336283
1629808525132,49043,329840,336282
1629808525142,49000,329772,336311
1629808525152,48942,329722,336276
1629808525162,48901,329727,336271
1629808525172,48859,329641,336243
1629808525182,48821,329670,336255
1629808525192,48810,329680,336268
1629808525202,48776,329639,336269
1629808525212,48777,329681,336247
1629808525222,48752,329672,336246
1629808525232,48739,329644,336188
1629808525242,48726,329678,336219
1629808525252,48705,329654,336210
1629808525262,48691,329692,336225
1629808525272,48675,329633,336210
1629808525282,48654,329620,336244
1629808525292,48638,329614,336213
1629808525302,48627,329610,336201
1629808525312,48615,329576,336212
1629808525322,48596,329616,336203
1629808525332,48589,329583,336230
1629808525342,48581,329638,336185
1629808525352,48579,329615,336184
1629808525362,48568,329582,336152
1629808525372,48577,329594,336166
1629808525382,48578,329637,336164
1629808525392,48583,329596,336114
1629808525402,48585,329630,336165
1629808525412,48582,329649,336163
1629808525422,48594,329651,336162
1629808525432,48610,329682,336169
1629808525442,48625,329717,336171
1629808525452,48636,329698,336164
1629808525462,48649,329730,336209
1629808525472,48664,329732,336211
1629808525482,48683,329775,336205
1629808525492,48697,329822,336214
1629808525502,48714,329832,336219
1629808525512,48735,329778,336242
1629808525522,48753,329873,336212
1629808525532,48778,329915,336250
1629808525542,48800,329907,336243
1629808525552,48819,329947,336285
1629808525562,48840,329974,336293
1629808525572,48867,329978,336278
1629808525582,48891,330022,336314
1629808525592,48917,330013,336272
1629808525602,48941,330048,336290
1629808525612,48953,330102,336321
1629808525622,48971,330101,336303
1629808525632,48999,330122,336323
1629808525642,49024,330166,336355
1629808525652,49043,330210,336348
1629808525662,49072,330173,336324
1629808525672,49094,330253,336373
1629808525682,49132,330255,336342
1629808525692,49154,330299,336384
1629808525702,49186,330339,336372
1629808525712,49207,330376,336402
1629808525722,49242,330420,336388
1629808525732,49265,330373,336404
1629808525742,49269,330315,336382
1629808525752,49254,330255,336350
1629808525762,49209,330160,336335
1629808525772,49160,330052,336311
1629808525782,49075,329920,336239
1629808525792,48987,329871,336247
1629808525802,48902,329781,336211
1629808525812,48799,329654,336153
1629808525822,48700,329604,336132
1629808525832,48623,329516,336120
1629808525842,48536,329524,336109
1629808525852,48486,329436,336089
1629808525862,48415,329402,336079
1629808525872,48352,329353,336086
1629808525882,48291,329327,336091
1629808525892,48237,329315,336027
1629808525902,48181,329229,336014
1629808525912,48125,329217,335983
1629808525922,48064,329155,335956
1629808525932,48025,329146,335973
1629808525942,47972,329130,335942
1629808525952,47928,329086,335944
1629808525962,47907,329063,335930
1629808525972,47870,329077,335903
1629808525982,47853,329092,335911
1629808525992,47844,329042,335922
1629808526002,47840,329038,335904
1629808526012,47828,329039,335882
1629808526022,47812,329048,335918
1629808526032,47820,329060,335916
1629808526042,47802,329041,335910
1629808526052,47785,329061,335905
1629808526062,47786,329026,335892
1629808526072,47766,328994,335868
1629808526082,47759,328985,335881
1629808526092,47748,329007,335888
1629808526102,47747,329018,335872
1629808526112,47746,329017,335886
1629808526122,47744,329014,335923
1629808526132,47742,329048,335904
1629808526142,47743,328992,335915
1629808526152,47750,329025,335894
1629808526162,47768,329037,335891
1629808526172,47775,329078,335940
1629808526182,47794,329091,335921
1629808526192,47804,329092,335900
1629808526202,47823,329103,335931
1629808526212,47833,329149,335949
1629808526222,47844,329165,335937
1629808526232,47877,329179,335927
1629808526242,47889,329170,335952
1629808526252,47921,329178,336013
1629808526262,47949,329263,335971
1629808526272,47964,329244,335973
1629808526282,47993,329251,335991
1629808526292,48017,329311,335979
1629808526302,48047,329366,335979
1629808526312,48086,329370,336032
1629808526322,48115,329353,336035
1629808526332,48143,329426,336027
1629808526342,48170,329403,336035
1629808526352,48188,329461,336077
1629808526362,48238,329521,336066
1629808526372,48253,329523,336085
1629808526382,48300,329561,336062
1629808526392,48329,329559,336048
1629808526402,48345,329602,336119
1629808526412,48378,329671,336081
1629808526422,48414,329706,336150
1629808526432,48445,329696,336136
1629808526442,48473,329749,336167
1629808526452,48509,329769,336146
1629808526462,48542,329768,336143
1629808526472,48572,329800,336187
1629808526482,48615,329843,336183
1629808526492,48646,329887,336209
1629808526502,48680,329946,336212
1629808526512,48711,329973,336246
1629808526522,48746,330011,336268
1629808526532,48790,330022,336304
1629808526542,48823,330106,336287
1629808526552,48854,330096,336296
1629808526562,48880,330036,336301
1629808526572,48881,330002,336239
1629808526582,48870,329852,336226
1629808526592,48836,329831,336210
1629808526602,48779,329703,336163
1629808526612,48715,329600,336150
1629808526622,48637,329505,336101
1629808526632,48553,329412,336084
1629808526642,48480,329357,336045
1629808526652,48405,329313,336010
1629808526662,48345,329305,336007
1629808526672,48277,329239,336011
1629808526682,48233,329234,336028
1629808526692,48187,329189,336001
1629808526702,48152,329134,335954
1629808526712,48118,329112,336000
1629808526722,48070,329102,335969
1629808526732,48043,329043,335929
1629808526742,47998,329048,335938
1629808526752,47971,328964,335938
1629808526762,47939,329005,335935
1629808526772,47912,328954,335951
1629808526782,47890,328968,335931
1629808526792,47875,328977,335968
1629808526802,47859,328952,335924
1629808526812,47856,328930,335907
1629808526822,47852,328947,335892
1629808526832,47854,328939,335896
1629808526842,47857,328953,335915
1629808526852,47855,328982,335925
1629808526862,47843,328925,335893
1629808526872,47840,328967,335909
1629808526882,47838,328887,335887
1629808526892,47839,328928,335880
1629808526902,47836,328969,335883
1629808526912,47827,328917,335897
1629808526922,47834,328927,335863
1629808526932,47829,328969,335858
1629808526942,47837,328939,335865
1629808526952,47840,328933,335911
1629808526962,47851,328952,335896
1629808526972,47875,329021,335876
1629808526982,47875,329017,335906
1629808526992,47899,329025,335885
1629808527002,47913,329063,335899
1629808527012,47934,329061,335943
1629808527022,47942,329043,335888
1629808527032,47967,329061,335901
1629808527042,47980,329120,335891
1629808527052,47989,329140,335848
1629808527062,48007,329147,335838
1629808527072,48020,329136,335843
1629808527082,48027,329192,335809
1629808527092,48043,329168,335813
1629808527102,48057,329196,335794
1629808527112,48086,329248,335769
1629808527122,48102,329228,335747
1629808527132,48122,329204,335752
1629808527142,48147,329226,335721
1629808527152,48172,329265,335759
1629808527162,48213,329302,335753
1629808527172,48235,329280,335746
1629808527182,48242,329333,335763
1629808527192,48293,329344,335796
1629808527202,48320,329359,335785
1629808527212,48360,329445,335869
1629808527222,48400,329634,335962
1629808527232,48435,329748,336123
1629808527242,48476,329871,336263
1629808527252,48520,329999,336421
1629808527262,48567,330153,336599
1629808527272,48622,330346,336737
1629808527282,48673,330492,336881
1629808527292,48733,330555,337002
1629808527302,48798,330639,337107
1629808527312,48859,330777,337187
1629808527322,48914,330880,337287
1629808527332,48976,330923,337375
1629808527342,49020,330980,337429
1629808527352,49068,330920,337462
1629808527362,49101,330935,337426
1629808527372,49101,330821,337410
1629808527382,49085,330712,337366
1629808527392,49061,330647,337365
1629808527402,49019,330589,337376
1629808527412,48969,330513,337366
1629808527422,48929,330495,337392
1629808527432,48888,330432,337361
1629808527442,48859,330439,337405
1629808527452,48834,330484,337429
1629808527462,48798,330403,337445
1629808527472,48798,330407,337481
1629808527482,48789,330452,337556
1629808527492,48791,330454,337636
1629808527502,48793,330505,337683
1629808527512,48797,330591,337785
1629808527522,48803,330641,337876
1629808527532,48815,330699,337964
1629808527542,48827,330771,338076
1629808527552,48828,330800,338148
1629808527562,48839,330833,338207
1629808527572,48854,330942,338297
1629808527582,48876,330974,338389
1629808527592,48894,331080,338397
1629808527602,48933,331119,338501
1629808527612,48947,331056,338513
1629808527622,48967,331127,338547
1629808527632,49001,331177,338586
1629808527642,49010,331175,338551
1629808527652,49027,331198,338584
1629808527662,49030,331177,338597
1629808527672,49052,331141,338588
1629808527682,49045,331157,338615
1629808527692,49051,331177,338591
1629808527702,49070,331156,338607
1629808527712,49082,331197,338671
1629808527722,49095,331254,338624
1629808527732,49113,331221,338633
1629808527742,49133,331244,338693
1629808527752,49156,331212,338685
1629808527762,49177,331308,338711
1629808527772,49199,331295,338691
1629808527782,49222,331353,338695
1629808527792,49257,331359,338713
1629808527802,49280,331371,338751
1629808527812,49309,331363,338766
1629808527822,49345,331407,338791
1629808527832,49366,331492,338774
1629808527842,49408,331494,338800
1629808527852,49423,331499,338827
1629808527862,49465,331500,338809
1629808527872,49495,331560,338827
1629808527882,49527,331614,338851
1629808527892,49560,331620,338908
1629808527902,49602,331659,338907
1629808527912,49636,331699,338910
1629808527922,49669,331751,338946
1629808527932,49713,331747,338960
1629808527942,49749,331783,338993
1629808527952,49786,331815,338968
1629808527962,49816,331859,338971
1629808527972,49861,331818,339009
1629808527982,49899,331946,339037
1629808527992,49922,331886,339037
1629808528002,49971,331939,339021
1629808528012,49998,331967,339057
1629808528022,50029,332002,339052
1629808528032,50062,332054,339063
1629808528042,50099,332031,339089
1629808528052,50140,332081,339129
1629808528062,50172,332137,339131
1629808528072,50201,332177,339138
1629808528082,50237,332212,339133
1629808528092,50282,332209,339176
1629808528102,50315,332236,339167
1629808528112,50365,332344,339217
1629808528122,50407,332290,339162
1629808528132,50436,332362,339199
1629808528142,50458,332324,339178
1629808528152,50470,332188,339172
1629808528162,50473,332159,339151
1629808528172,50449,332074,339144
1629808528182,50411,331994,339080
1629808528192,50352,331929,339088
1629808528202,50293,331917,339041
1629808528212,50227,331812,339046
1629808528222,50185,331782,339005
1629808528232,50129,331728,339010
1629808528242,50092,331680,338998
1629808528252,50048,331649,338986
1629808528262,50024,331655,338987
1629808528272,49988,331639,338995
1629808528282,49956,331624,338972
1629808528292,49922,331590,338984
1629808528302,49897,331543,338946
1629808528312,49871,331544,338936
1629808528322,49835,331520,338952
1629808528332,49804,331463,338956
1629808528342,49770,331417,338889
1629808528352,49755,331460,338873
1629808528362,49735,331466,338871
1629808528372,49713,331437,338909
1629808528382,49703,331455,338902
1629808528392,49709,331453,338920
1629808528402,49711,331450,338888
1629808528412,49704,331462,338880
1629808528422,49707,331397,338861
1629808528432,49705,331447,338863
1629808528442,49711,331420,338851
1629808528452,49698,331394,338830
1629808528462,49695,331409,338833
1629808528472,49693,331372,338835
1629808528482,49679,331407,338824
1629808528492,49688,331377,338787
1629808528502,49686,331327,338810
1629808528512,49677,331383,338775
1629808528522,49683,331333,338771
1629808528532,49679,331347,338788
1629808528542,49686,331375,338764
1629808528552,49693,331357,338772
1629808528562,49702,331387,338785
1629808528572,49713,331341,338785
1629808528582,49718,331398,338755
1629808528592,49741,331407,338762
1629808528602,49759,331362,338775
1629808528612,49760,331420,338787
1629808528622,49797,331418,338742
1629808528632,49821,331469,338786
1629808528642,49839,331483,338728
1629808528652,49863,331427,338781
1629808528662,49885,331493,338790
1629808528672,49907,331522,338758
1629808528682,49930,331475,338780
1629808528692,49953,331544,338777
1629808528702,49976,331588,338778
1629808528712,50003,331546,338800
1629808528722,50018,331577,338798
1629808528732,50039,331623,338768
1629808528742,50069,331587,338745
1629808528752,50091,331650,338756
1629808528762,50100,331573,338762
1629808528772,50131,331619,338686
1629808528782,50149,331616,338698
1629808528792,50159,331605,338661
1629808528802,50175,331573,338638
1629808528812,50200,331630,338626
1629808528822,50218,331582,338600
1629808528832,50233,331527,338609
1629808528842,50242,331581,338534
1629808528852,50258,331554,338489
1629808528862,50278,331551,338475
1629808528872,50295,331539,338455
1629808528882,50297,331511,338427
1629808528892,50311,331503,338418
1629808528902,50333,331538,338382
1629808528912,50353,331518,338390
1629808528922,50384,331558,338391
1629808528932,50407,331573,338371
1629808528942,50433,331619,338370
1629808528952,50462,331607,338388
1629808528962,50466,331628,338358
1629808528972,50506,331651,338348
1629808528982,50519,331588,338294
1629808528992,50516,331517,338283
1629808529002,50498,331428,338219
1629808529012,50472,331368,338185
1629808529022,50418,331311,338186
1629808529032,50351,331175,338147
1629808529042,50284,331085,338094
1629808529052,50210,331006,338064
1629808529062,50132,330922,338094
1629808529072,50049,330874,338051
1629808529082,49980,330851,338023
1629808529092,49912,330822,337963
1629808529102,49862,330715,338001
1629808529112,49780,330672,337961
1629808529122,49730,330685,337918
1629808529132,49679,330647,337917
1629808529142,49605,330645,337923
1629808529152,49548,330596,337920
1629808529162,49497,330588,337927
1629808529172,49443,330571,337921
1629808529182,49399,330599,337921
1629808529192,49352,330612,337922
1629808529202,49316,330566,337969
1629808529212,49283,330601,337947
1629808529222,49261,330621,337986
1629808529232,49240,330676,338011
1629808529242,49224,330656,337997
1629808529252,49224,330696,338064
1629808529262,49216,330671,338064
1629808529272,49194,330699,338034
1629808529282,49184,330669,338061
1629808529292,49175,330660,338053
1629808529302,49168,330666,338005
1629808529312,49150,330622,337996
1629808529322,49131,330580,337945
1629808529332,49124,330583,337993
1629808529342,49115,330573,337957
1629808529352,49101,330601,337952
1629808529362,49093,330556,337916
1629808529372,49082,330586,337924
1629808529382,49082,330524,337895
1629808529392,49081,330561,337865
1629808529402,49082,330584,337866
1629808529412,49088,330566,337851
1629808529422,49087,330550,337850
1629808529432,49105,330578,337822
1629808529442,49098,330523,337799
1629808529452,49109,330556,337822
1629808529462,49124,330568,337811
1629808529472,49130,330568,337773
1629808529482,49146,330578,337786
1629808529492,49160,330555,337763
1629808529502,49180,330595,337738
1629808529512,49185,330583,337753
1629808529522,49192,330631,337754
1629808529532,49213,330605,337746
1629808529542,49242,330636,337789
1629808529552,49254,330667,337734
1629808529562,49264,330653,337704
1629808529572,49277,330679,337731
1629808529582,49314,330663,337731
1629808529592,49327,330759,337736
1629808529602,49348,330727,337722
1629808529612,49389,330742,337725
1629808529622,49393,330815,337747
1629808529632,49421,330824,337736
1629808529642,49438,330850,337732
1629808529652,49460,330791,337748
1629808529662,49482,330865,337749
1629808529672,49507,330878,337747
1629808529682,49539,330903,337771
1629808529692,49561,330948,337784
1629808529702,49588,331001,337766
1629808529712,49619,331009,337797
1629808529722,49646,331054,337797
1629808529732,49677,331078,337842
1629808529742,49713,331127,337811
1629808529752,49736,331208,337871
1629808529762,49767,331219,337881
1629808529772,49786,331262,337934
1629808529782,49812,331311,338010
1629808529792,49847,331379,337956
1629808529802,49885,331439,338010
1629808529812,49911,331460,338047
1629808529822,49941,331550,338089
1629808529832,49977,331584,338110
1629808529842,50014,331614,338176
1629808529852,50042,331662,338156
1629808529862,50081,331619,338177
1629808529872,50080,331609,338140
1629808529882,50067,331566,338160
1629808529892,50051,331478,338130
1629808529902,50002,331407,338118
1629808529912,49938,331301,338120
1629808529922,49867,331229,338086
1629808529932,49805,331149,338067
1629808529942,49724,331088,338041
1629808529952,49651,331032,338017
1629808529962,49581,330997,338042
1629808529972,49515,331012,337995
1629808529982,49468,330955,337981
1629808529992,49419,330952,338011
1629808530002,49377,330915,338040
1629808530012,49319,330883,337977
1629808530022,49267,330893,338020
1629808530032,49225,330780,337978
1629808530042,49184,330793,337975
1629808530052,49148,330715,337944
1629808530062,49112,330738,337960
1629808530072,49066,330692,337958
1629808530082,49027,330683,337968
1629808530092,49002,330737,337974
1629808530102,48990,330678,337994
1629808530112,48980,330715,337968
1629808530122,48977,330774,338001
1629808530132,48964,330775,338003
1629808530142,48969,330788,338042
1629808530152,48967,330825,338052
1629808530162,48961,330843,338084
1629808530172,48957,330848,338083
1629808530182,48959,330823,338137
1629808530192,48961,330842,338101
1629808530202,48955,330813,338137
1629808530212,48952,330819,338130
1629808530222,48947,330821,338143
1629808530232,48947,330840,338109
1629808530242,48954,330781,338104
1629808530252,48939,330838,338169
1629808530262,48942,330852,338129
1629808530272,48951,330886,338156
1629808530282,48951,330854,338099
1629808530292,48962,330796,338050
1629808530302,48960,330809,338080
1629808530312,48963,330824,338041
1629808530322,48979,330797,338016
1629808530332,48981,330799,337979
1629808530342,48991,330802,337946
1629808530352,49003,330800,337889
1629808530362,49008,330805,337876
1629808530372,49017,330789,337802
1629808530382,49028,330729,337770
1629808530392,49027,330763,337718
1629808530402,49032,330731,337689
1629808530412,49043,330786,337623
1629808530422,49061,330767,337635
1629808530432,49061,330798,337592
1629808530442,49082,330797,337522
1629808530452,49085,330834,337537
1629808530462,49110,330872,337560
1629808530472,49119,330946,337600
1629808530482,49142,330998,337590
1629808530492,49170,331082,337613
1629808530502,49199,331082,337654
1629808530512,49220,331168,337662
1629808530522,49247,331198,337733
1629808530532,49283,331208,337713
1629808530542,49331,331281,337760
1629808530552,49340,331319,337813
1629808530562,49380,331374,337846
1629808530572,49418,331466,337832
1629808530582,49430,331448,337910
1629808530592,49473,331515,337889
1629808530602,49500,331523,337919
1629808530612,49535,331572,337974
1629808530622,49566,331626,337972
1629808530632,49600,331628,337981
1629808530642,49640,331665,338048
1629808530652,49680,331732,338055
1629808530662,49734,331737,338123
1629808530672,49765,331833,338150
1629808530682,49814,331856,338185
1629808530692,49854,331918,338198
1629808530702,49904,331897,338244
1629808530712,49938,331902,338269
1629808530722,49962,331870,338243
1629808530732,49983,331763,338234
1629808530742,49983,331739,338212
1629808530752,49943,331682,338186
1629808530762,49899,331598,338218
1629808530772,49835,331518,338235
1629808530782,49772,331454,338230
1629808530792,49700,331410,338240
1629808530802,49640,331390,338199
1629808530812,49577,331327,338234
1629808530822,49529,331301,338230
1629808530832,49491,331294,338253
1629808530842,49448,331300,338321
1629808530852,49421,331289,338308
1629808530862,49383,331282,338345
1629808530872,49387,331368,338366
1629808530882,49366,331329,338468
1629808530892,49355,331362,338450
1629808530902,49325,331375,338501
1629808530912,49312,331358,338564
1629808530922,49293,331414,338603
1629808530932,49275,331422,338614
1629808530942,49273,331429,338636
1629808530952,49269,331511,338655
1629808530962,49274,331538,338649
1629808530972,49278,331561,338685
1629808530982,49278,331534,338717
1629808530992,49295,331610,338699
1629808531002,49298,331596,338702
1629808531012,49295,331554,338734
1629808531022,49302,331622,338784
1629808531032,49303,331586,338793
1629808531042,49315,331612,338823
1629808531052,49320,331614,338823
1629808531062,49323,331679,338869
1629808531072,49327,331705,338917
1629808531082,49335,331720,338951
1629808531092,49344,331710,338962
1629808531102,49361,331748,338964
1629808531112,49366,331776,339011
1629808531122,49380,331788,338971
1629808531132,49394,331784,338984
1629808531142,49408,331829,339049
1629808531152,49434,331857,339042
1629808531162,49453,331908,339061
1629808531172,49468,331845,339085
1629808531182,49486,331890,339058
1629808531192,49516,331928,339070
1629808531202,49542,331928,339100
1629808531212,49557,331966,339115
1629808531222,49569,332002,339103
1629808531232,49591,331994,339111
1629808531242,49616,332005,339117
1629808531252,49631,331979,339069
1629808531262,49661,332024,339116
1629808531272,49678,332035,339120
1629808531282,49706,332044,339120
1629808531292,49733,332118,339118
1629808531302,49759,332134,339134
1629808531312,49779,332234,339127
1629808531322,49810,332158,339169
1629808531332,49834,332177,339150
1629808531342,49860,332179,339124
1629808531352,49887,332211,339181
1629808531362,49932,332217,339142
1629808531372,49959,332212,339176
1629808531382,49983,332234,339139
1629808531392,50020,332277,339180
1629808531402,50033,332298,339188
1629808531412,50067,332332,339171
1629808531422,50099,332339,339185
1629808531432,50122,332405,339188
1629808531442,50159,332430,339212
1629808531452,50196,332453,339280
1629808531462,50238,332544,339232
1629808531472,50261,332546,339295
1629808531482,50311,332603,339302
1629808531492,50346,332627,339342
1629808531502,50385,332661,339396
1629808531512,50429,332687,339402
1629808531522,50457,332760,339404
1629808531532,50495,332701,339418
1629808531542,50499,332688,339388
1629808531552,50495,332610,339357
1629808531562,50459,332512,339364
1629808531572,50419,332457,339332
1629808531582,50359,332373,339299
1629808531592,50295,332277,339284
1629808531602,50215,332224,339282
1629808531612,50146,332216,339290
1629808531622,50084,332154,339291
1629808531632,50033,332101,339267
1629808531642,49980,332075,339283
1629808531652,49933,332097,339231
1629808531662,49893,332089,339255
1629808531672,49857,332071,339205
1629808531682,49811,332006,339190
1629808531692,49782,331937,339227
1629808531702,49743,331951,339173
1629808531712,49702,331913,339214
1629808531722,49670,331895,339168
1629808531732,49629,331855,339126
1629808531742,49596,331795,339102
1629808531752,49564,331804,339068
1629808531762,49546,331770,339051
1629808531772,49530,331771,339089
1629808531782,49526,331751,339075
1629808531792,49521,331724,339046
1629808531802,49507,331666,339054
1629808531812,49488,331702,339054
1629808531822,49487,331670,338980
1629808531832,49480,331669,338997
1629808531842,49470,331634,338983
1629808531852,49468,331646,338950
1629808531862,49444,331593,338904
1629808531872,49431,331575,338884
1629808531882,49422,331552,338862
1629808531892,49413,331544,338830
1629808531902,49410,331468,338849
1629808531912,49402,331472,338856
1629808531922,49395,331504,338810
1629808531932,49398,331488,338801
1629808531942,49393,331481,338813
1629808531952,49389,331487,338798
1629808531962,49398,331415,338759
1629808531972,49391,331467,338740
1629808531982,49410,331419,338709
1629808531992,49411,331356,338682
1629808532002,49428,331344,338668
1629808532012,49422,331331,338612
1629808532022,49417,331293,338622
1629808532032,49433,331329,338634
1629808532042,49441,331296,338570
1629808532052,49448,331265,338539
1629808532062,49453,331268,338476
1629808532072,49468,331264,338477
1629808532082,49471,331219,338435
1629808532092,49482,331164,338411
1629808532102,49486,331137,338386
1629808532112,49481,331168,338317
1629808532122,49495,331144,338284
1629808532132,49501,331105,338254
1629808532142,49522,331141,338240
1629808532152,49540,331140,338263
1629808532162,49566,331197,338267
1629808532172,49585,331195,338287
1629808532182,49597,331228,338266
1629808532192,49610,331251,338236
1629808532202,49640,331226,338214
1629808532212,49649,331292,338217
1629808532222,49650,331291,338209
1629808532232,49680,331250,338223
1629808532242,49692,331294,338157
1629808532252,49711,331300,338132
1629808532262,49733,331290,338134
1629808532272,49755,331342,338134
1629808532282,49778,331378,338146
1629808532292,49798,331403,338127
1629808532302,49827,331404,338145
1629808532312,49845,331427,338124
1629808532322,49881,331457,338151
1629808532332,49905,331472,338145
1629808532342,49913,331494,338182
1629808532352,49941,331441,338173
1629808532362,49960,331435,338140
1629808532372,49942,331373,338064
1629808532382,49923,331280,338018
1629808532392,49879,331191,338001
1629808532402,49816,331079,337988
1629808532412,49737,330965,337950
1629808532422,49660,330819,337882
1629808532432,49564,330833,337855
1629808532442,49489,330783,337863
1629808532452,49411,330712,337813
1629808532462,49326,330682,337801
1629808532472,49264,330592,337745
1629808532482,49205,330560,337750
1629808532492,49130,330545,337716
1629808532502,49090,330523,337690
1629808532512,49032,330477,337655
1629808532522,48967,330433,337713
1629808532532,48916,330493,337636
1629808532542,48868,330415,337644
1629808532552,48823,330383,337621
1629808532562,48762,330376,337618
1629808532572,48724,330329,337585
1629808532582,48679,330323,337609
1629808532592,48647,330365,337606
1629808532602,48622,330360,337615
1629808532612,48604,330399,337622
1629808532622,48600,330433,337629
1629808532632,48588,330436,337634
1629808532642,48582,330435,337667
1629808532652,48577,330492,337681
1629808532662,48562,330506,337697
1629808532672,48565,330512,337692
1629808532682,48555,330509,337723
1629808532692,48538,330516,337724
1629808532702,48544,330514,337728
1629808532712,48539,330551,337742
1629808532722,48523,330574,337751
1629808532732,48526,330542,337744
1629808532742,48531,330610,337757
1629808532752,48531,330601,337814
1629808532762,48544,330642,337796
1629808532772,48549,330620,337827
1629808532782,48569,330693,337832
1629808532792,48588,330736,337829
1629808532802,48606,330786,337870
1629808532812,48623,330783,337871
1629808532822,48653,330830,337947
1629808532832,48666,330899,337952
1629808532842,48688,330901,337964
1629808532852,48712,330898,337988
1629808532862,48743,330969,337986
1629808532872,48751,330962,337986
1629808532882,48789,331033,337981
1629808532892,48821,331021,338051
1629808532902,48847,331074,338061
1629808532912,48875,331144,338076
1629808532922,48915,331124,338085
1629808532932,48938,331169,338118
1629808532942,48972,331175,338121
1629808532952,49010,331247,338144
1629808532962,49037,331261,338137
1629808532972,49083,331278,338170
1629808532982,49115,331323,338165
1629808532992,49150,331315,338201
1629808533002,49180,331339,338201
1629808533012,49218,331375,338183
1629808533022,49249,331387,338176
1629808533032,49267,331339,338199
1629808533042,49311,331411,338248
1629808533052,49338,331490,338258
1629808533062,49374,331496,338247
1629808533072,49409,331522,338258
1629808533082,49434,331545,338240
1629808533092,49472,331552,338274
1629808533102,49503,331559,338263
1629808533112,49542,331622,338288
1629808533122,49584,331634,338295
1629808533132,49611,331713,338318
1629808533142,49646,331671,338307
1629808533152,49693,331732,338304
1629808533162,49708,331701,338320
1629808533172,49753,331718,338344
1629808533182,49779,331752,338290
1629808533192,49800,331655,338309
1629808533202,49790,331635,338262
1629808533212,49766,331530,338263
1629808533222,49740,331434,338201
1629808533232,49691,331362,338163
1629808533242,49633,331230,338146
1629808533252,49556,331156,338103
1629808533262,49489,331084,338088
1629808533272,49429,331050,338036
1629808533282,49366,331024,338041
1629808533292,49323,330956,338017
1629808533302,49278,330941,338037
1629808533312,49234,330889,338062
1629808533322,49167,330803,337956
1629808533332,49132,330823,337987
1629808533342,49091,330738,337943
1629808533352,49041,330696,337926
1629808533362,49000,330628,337888
1629808533372,48950,330613,337873
1629808533382,48920,330575,337863
1629808533392,48891,330527,337852
1629808533402,48860,330535,337843
1629808533412,48823,330500,337800
1629808533422,48798,330476,337803
1629808533432,48783,330446,337800
1629808533442,48776,330505,337788
1629808533452,48767,330492,337821
1629808533462,48766,330502,337794
1629808533472,48766,330488,337785
1629808533482,48751,330497,337774
1629808533492,48750,330472,337738
1629808533502,48750,330418,337779
1629808533512,48745,330459,337773
1629808533522,48744,330421,337769
1629808533532,48733,330433,337774
1629808533542,48731,330463,337756
1629808533552,48726,330402,337739
1629808533562,48721,330440,337778
1629808533572,48735,330448,337711
1629808533582,48738,330421,337706
1629808533592,48734,330467,337718
1629808533602,48741,330448,337720
1629808533612,48752,330434,337723
1629808533622,48768,330461,337788
1629808533632,48775,330491,337714
1629808533642,48804,330490,337736
1629808533652,48824,330543,337756
1629808533662,48836,330537,337739
1629808533672,48861,330576,337746
1629808533682,48885,330611,337772
1629808533692,48899,330580,337764
1629808533702,48913,330648,337776
1629808533712,48936,330637,337784
1629808533722,48959,330687,337795
1629808533732,48987,330712,337803
1629808533742,49004,330727,337797
1629808533752,49028,330767,337814
1629808533762,49057,330787,337804
1629808533772,49088,330758,337826
1629808533782,49123,330821,337830
1629808533792,49157,330855,337837
1629808533802,49175,330887,337826
1629808533812,49199,330870,337839
1629808533822,49235,330924,337861
1629808533832,49261,330948,337883
1629808533842,49290,330980,337868
1629808533852,49305,330970,337893
1629808533862,49349,331017,337885
1629808533872,49373,331020,337905
1629808533882,49398,331097,337889
1629808533892,49432,331017,337890
1629808533902,49463,331082,337934
1629808533912,49490,331161,337931
1629808533922,49530,331177,337919
1629808533932,49551,331129,337907
1629808533942,49597,331207,337970
1629808533952,49619,331191,337946
1629808533962,49649,331260,337980
1629808533972,49689,331229,337957
1629808533982,49721,331267,337938
1629808533992,49740,331262,337938
1629808534002,49730,331203,337959
1629808534012,49713,331130,337874
1629808534022,49678,331032,337878
1629808534032,49624,330927,337830
1629808534042,49570,330850,337798
1629808534052,49502,330840,337790
1629808534062,49432,330708,337781
1629808534072,49380,330708,337773
1629808534082,49326,330665,337699
1629808534092,49269,330604,337743
1629808534102,49227,330582,337697
1629808534112,49174,330542,337687
1629808534122,49130,330508,337661
1629808534132,49099,330443,337680
1629808534142,49063,330422,337635
1629808534152,49014,330400,337669
1629808534162,48997,330407,337653
1629808534172,48952,330340,337619
1629808534182,48920,330368,337592
1629808534192,48883,330276,337573
1629808534202,48858,330287,337618
1629808534212,48830,330315,337613
1629808534222,48814,330280,337648
1629808534232,48808,330319,337570
1629808534242,48802,330319,337585
1629808534252,48795,330317,337605
1629808534262,48803,330326,337578
1629808534272,48790,330271,337645
1629808534282,48786,330272,337590
1629808534292,48793,330304,337590
1629808534302,48759,330297,337586
1629808534312,48770,330255,337605
1629808534322,48764,330235,337572
1629808534332,48752,330301,337571
1629808534342,48748,330228,337589
1629808534352,48748,330298,337575
1629808534362,48743,330297,337581
1629808534372,48750,330302,337594
1629808534382,48756,330258,337556
1629808534392,48759,330291,337620
1629808534402,48772,330316,337564
1629808534412,48783,330298,337579
1629808534422,48794,330349,337588
1629808534432,48807,330368,337588
1629808534442,48826,330357,337606
1629808534452,48845,330357,337589
1629808534462,48867,330395,337598
1629808534472,48885,330393,337598
1629808534482,48910,330448,337621
1629808534492,48926,330458,337598
1629808534502,48949,330451,337631
1629808534512,48975,330530,337640
1629808534522,48994,330578,337636
1629808534532,49029,330534,337606
1629808534542,49050,330598,337645
1629808534552,49076,330608,337657
1629808534562,49100,330601,337709
1629808534572,49135,330683,337702
1629808534582,49161,330643,337712
1629808534592,49179,330706,337721
1629808534602,49221,330783,337685
1629808534612,49251,330775,337760
1629808534622,49287,330753,337771
1629808534632,49312,330838,337765
1629808534642,49335,330857,337752
1629808534652,49386,330869,337790
1629808534662,49411,330903,337803
1629808534672,49442,330934,337766
1629808534682,49476,330978,337849
1629808534692,49499,331008,337833
1629808534702,49532,330988,337841
1629808534712,49571,331107,337895
1629808534722,49600,331078,337871
1629808534732,49635,331091,337883
1629808534742,49671,331176,337903
1629808534752,49705,331225,337918
1629808534762,49746,331243,337922
1629808534772,49781,331248,337944
1629808534782,49804,331324,337968
1629808534792,49844,331333,337985
1629808534802,49891,331390,338042
1629808534812,49922,331378,338000
1629808534822,49945,331331,337987
1629808534832,49940,331270,337935
1629808534842,49935,331193,337916
1629808534852,49910,331097,337886
1629808534862,49867,331034,337903
1629808534872,49816,330929,337836
1629808534882,49741,330897,337823
1629808534892,49677,330843,337827
1629808534902,49623,330763,337779
1629808534912,49564,330739,337803
1629808534922,49520,330710,337790
1629808534932,49476,330707,337772
1629808534942,49447,330664,337767
1629808534952,49390,330627,337764
1629808534962,49346,330630,337790
1629808534972,49318,330585,337769
1629808534982,49278,330522,337762
1629808534992,49251,330543,337754
1629808535002,49205,330510,337735
1629808535012,49166,330484,337720
1629808535022,49140,330464,337692
1629808535032,49125,330412,337691
1629808535042,49099,330415,337683
1629808535052,49089,330452,337700
1629808535062,49076,330425,337696
1629808535072,49081,330420,337663
1629808535082,49073,330457,337693
1629808535092,49070,330452,337709
1629808535102,49065,330375,337695
1629808535112,49056,330390,337682
1629808535122,49051,330393,337638
1629808535132,49058,330408,337662
1629808535142,49035,330410,337654
1629808535152,49025,330421,337668
1629808535162,49026,330390,337671
1629808535172,49017,330405,337674
1629808535182,49017,330403,337678
1629808535192,49022,330431,337646
1629808535202,49023,330429,337676
1629808535212,49017,330420,337680
1629808535222,49022,330403,337650
1629808535232,49018,330444,337635
1629808535242,49022,330438,337594
1629808535252,49037,330423,337616
1629808535262,49039,330469,337571
1629808535272,49045,330427,337590
1629808535282,49064,330470,337558
1629808535292,49068,330480,337540
1629808535302,49084,330511,337507
1629808535312,49099,330540,337541
1629808535322,49118,330550,337555
1629808535332,49134,330629,337552
1629808535342,49159,330599,337558
1629808535352,49180,330633,337539
1629808535362,49196,330634,337557
1629808535372,49220,330637,337509
1629808535382,49230,330703,337558
1629808535392,49255,330708,337558
1629808535402,49285,330742,337552
1629808535412,49305,330775,337582
1629808535422,49332,330752,337555
1629808535432,49352,330853,337602
1629808535442,49368,330919,337571
1629808535452,49421,330953,337617
1629808535462,49430,330954,337612
1629808535472,49454,331011,337621
1629808535482,49479,331043,337630
1629808535492,49507,331025,337595
1629808535502,49526,331105,337644
1629808535512,49558,331083,337671
1629808535522,49582,331127,337647
1629808535532,49617,331158,337669
1629808535542,49647,331202,337662
1629808535552,49670,331183,337661
1629808535562,49712,331194,337663
1629808535572,49754,331345,337690
1629808535582,49772,331326,337718
1629808535592,49791,331356,337709
1629808535602,49843,331441,337719
1629808535612,49874,331498,337761
1629808535622,49899,331487,337808
1629808535632,49939,331527,337761
1629808535642,49970,331593,337833
1629808535652,49991,331551,337821
1629808535662,49996,331503,337777
1629808535672,49992,331400,337723
1629808535682,49953,331342,337770
1629808535692,49919,331297,337739
1629808535702,49864,331172,337712
1629808535712,49791,331088,337692
1629808535722,49734,331056,337647
1629808535732,49662,330997,337652
1629808535742,49614,330937,337646
1629808535752,49571,330887,337625
1629808535762,49519,330939,337631
1629808535772,49484,330938,337586
1629808535782,49447,330898,337602
1629808535792,49412,330869,337576
1629808535802,49364,330835,337572
1629808535812,49343,330848,337543
1629808535822,49311,330814,337549
1629808535832,49290,330772,337556
1629808535842,49256,330723,337541
1629808535852,49234,330721,337540
1629808535862,49223,330748,337576
1629808535872,49200,330746,337517
1629808535882,49201,330759,337546
1629808535892,49196,330733,337531
1629808535902,49200,330803,337507
1629808535912,49185,330734,337527
1629808535922,49197,330764,337573
1629808535932,49198,330790,337550
1629808535942,49193,330770,337532
1629808535952,49179,330805,337586
1629808535962,49182,330784,337600
1629808535972,49174,330791,337553
1629808535982,49170,330737,337601
1629808535992,49172,330768,337589
1629808536002,49156,330783,337591
1629808536012,49154,330766,337582
1629808536022,49156,330794,337563
1629808536032,49166,330802,337573
1629808536042,49172,330780,337578
1629808536052,49179,330863,337592
1629808536062,49193,330851,337650
1629808536072,49209,330890,337633
1629808536082,49218,330852,337641
1629808536092,49229,330879,337649
1629808536102,49240,330890,337681
1629808536112,49265,330938,337687
1629808536122,49284,330975,337687
1629808536132,49309,330977,337680
1629808536142,49324,330980,337688
1629808536152,49344,331053,337741
1629808536162,49364,331033,337728
1629808536172,49391,331046,337734
1629808536182,49417,331106,337729
1629808536192,49432,331054,337734
1629808536202,49468,331116,337755
1629808536212,49494,331157,337796
1629808536222,49526,331197,337780
1629808536232,49540,331197,337798
1629808536242,49571,331244,337808
1629808536252,49596,331238,337798
1629808536262,49616,331290,337839
1629808536272,49662,331308,337799
1629808536282,49680,331316,337823
1629808536292,49707,331356,337851
1629808536302,49736,331350,337840
1629808536312,49754,331388,337862
1629808536322,49782,331389,337881
1629808536332,49812,331427,337902
1629808536342,49830,331425,337896
1629808536352,49862,331464,337869
1629808536362,49886,331483,337900
1629808536372,49925,331494,337921
1629808536382,49955,331554,337924
1629808536392,49985,331634,337920
1629808536402,50015,331685,337950
1629808536412,50059,331689,337990
1629808536422,50086,331696,337945
1629808536432,50102,331736,337982
1629808536442,50124,331697,337922
1629808536452,50128,331608,337921
1629808536462,50117,331536,337887
1629808536472,50082,331467,337851
1629808536482,50051,331384,337827
1629808536492,49991,331260,337817
1629808536502,49917,331191,337800
1629808536512,49833,331147,337765
1629808536522,49766,331033,337725
1629808536532,49704,331032,337705
1629808536542,49626,331002,337680
1629808536552,49574,330947,337711
1629808536562,49530,330922,337692
1629808536572,49477,330876,337683
1629808536582,49429,330855,337657
1629808536592,49379,330856,337653
1629808536602,49330,330795,337623
1629808536612,49287,330795,337609
1629808536622,49238,330793,337618
1629808536632,49210,330689,337567
1629808536642,49175,330662,337590
1629808536652,49154,330659,337610
1629808536662,49112,330604,337530
1629808536672,49090,330595,337511
1629808536682,49079,330630,337552
1629808536692,49059,330632,337538
1629808536702,49067,330615,337522
1629808536712,49050,330645,337526
1629808536722,49046,330609,337516
1629808536732,49035,330603,337493
1629808536742,49035,330575,337480
1629808536752,49029,330587,337500
1629808536762,49015,330563,337493
1629808536772,49001,330575,337477
1629808536782,48997,330609,337473
1629808536792,48987,330588,337443
1629808536802,48975,330589,337459
1629808536812,48973,330580,337447
1629808536822,48960,330567,337442
1629808536832,48961,330535,337410
1629808536842,48962,330510,337429
1629808536852,48974,330531,337442
1629808536862,48973,330548,337414
1629808536872,48988,330593,337436
1629808536882,49000,330563,337435
1629808536892,49019,330609,337425
1629808536902,49038,330621,337441
1629808536912,49046,330653,337427
1629808536922,49067,330641,337439
1629808536932,49078,330642,337414
1629808536942,49098,330676,337439
1629808536952,49121,330738,337476
1629808536962,49143,330748,337448
1629808536972,49167,330726,337476
1629808536982,49194,330703,337487
1629808536992,49217,330776,337506
1629808537002,49240,330841,337460
1629808537012,49265,330793,337463
1629808537022,49303,330879,337491
1629808537032,49316,330899,337489
1629808537042,49333,330876,337478
1629808537052,49368,330912,337505
1629808537062,49406,330940,337501
1629808537072,49431,330960,337475
1629808537082,49445,331042,337520
1629808537092,49468,331014,337535
1629808537102,49501,331055,337502
1629808537112,49519,331100,337521
1629808537122,49550,331112,337517
1629808537132,49578,331171,337522
1629808537142,49604,331097,337569
1629808537152,49632,331165,337597
1629808537162,49656,331184,337533
1629808537172,49699,331202,337595
1629808537182,49718,331264,337562
1629808537192,49740,331243,337598
1629808537202,49783,331281,337595
1629808537212,49806,331332,337625
1629808537222,49830,331376,337625
1629808537232,49852,331366,337636
1629808537242,49881,331388,337616
1629808537252,49914,331466,337623
1629808537262,49947,331478,337638
1629808537272,49975,331488,337652
1629808537282,50018,331482,337681
1629808537292,50039,331514,337631
1629808537302,50036,331424,337603
1629808537312,50017,331329,337555
1629808537322,49997,331203,337506
1629808537332,49935,331134,337476
1629808537342,49859,331065,337515
1629808537352,49791,330929,337446
1629808537362,49716,330897,337440
1629808537372,49623,330819,337386
1629808537382,49548,330756,337392
1629808537392,49474,330691,337373
1629808537402,49408,330645,337368
1629808537412,49350,330617,337331
1629808537422,49291,330592,337351
1629808537432,49239,330532,337291
1629808537442,49187,330487,337306
1629808537452,49139,330494,337286
1629808537462,49089,330416,337241
1629808537472,49047,330397,337233
1629808537482,49008,330369,337191
1629808537492,48959,330293,337161
1629808537502,48923,330324,337154
1629808537512,48883,330269,337116
1629808537522,48854,330209,337141
1629808537532,48823,330228,337129
1629808537542,48816,330259,337129
1629808537552,48809,330213,337114
1629808537562,48793,330162,337131
1629808537572,48785,330251,337114
1629808537582,48780,330222,337118
1629808537592,48774,330224,337116
1629808537602,48774,330189,337111
1629808537612,48771,330203,337127
1629808537622,48761,330170,337123
1629808537632,48756,330178,337088
1629808537642,48751,330180,337103
1629808537652,48746,330167,337107
1629808537662,48730,330160,337108
1629808537672,48737,330153,337059
1629808537682,48738,330167,337093
1629808537692,48747,330171,337091
1629808537702,48749,330160,337062
1629808537712,48744,330154,337094
1629808537722,48767,330151,337062
1629808537732,48768,330225,337069
1629808537742,48790,330250,337114
1629808537752,48800,330263,337053
1629808537762,48820,330280,337106
1629808537772,48847,330245,337089
1629808537782,48864,330300,337153
1629808537792,48880,330304,337112
1629808537802,48900,330342,337125
1629808537812,48924,330383,337142
1629808537822,48954,330425,337153
1629808537832,48975,330394,337139
1629808537842,49002,330429,337153
1629808537852,49022,330433,337147
1629808537862,49036,330446,337128
1629808537872,49068,330544,337136
1629808537882,49105,330530,337171
1629808537892,49122,330556,337169
1629808537902,49153,330604,337135
1629808537912,49183,330590,337171
1629808537922,49214,330666,337193
1629808537932,49239,330667,337228
1629808537942,49273,330662,337200
1629808537952,49305,330727,337235
1629808537962,49339,330689,337220
1629808537972,49357,330791,337267
1629808537982,49388,330770,337257
1629808537992,49427,330824,337255
1629808538002,49454,330870,337277
1629808538012,49490,330869,337271
1629808538022,49519,330940,337261
1629808538032,49548,330999,337285
1629808538042,49576,330994,337317
1629808538052,49607,330958,337270
1629808538062,49645,331057,337304
1629808538072,49675,331055,337306
1629808538082,49711,331103,337323
1629808538092,49746,331093,337355
1629808538102,49783,331210,337367
1629808538112,49814,331187,337390
1629808538122,49846,331254,337351
1629808538132,49886,331267,337395
1629808538142,49924,331288,337404
1629808538152,49967,331324,337404
1629808538162,49992,331333,337429
1629808538172,50023,331306,337389
1629808538182,50029,331274,337387
1629808538192,50025,331147,337345
1629808538202,49998,331109,337315
1629808538212,49945,330951,337256
1629808538222,49895,330894,337271
1629808538232,49828,330833,337206
1629808538242,49753,330760,337231
1629808538252,49678,330659,337210
1629808538262,49614,330602,337158
1629808538272,49560,330583,337140
1629808538282,49506,330562,337095
1629808538292,49453,330512,337151
1629808538302,49414,330487,337113
1629808538312,49364,330460,337143
1629808538322,49320,330448,337134
1629808538332,49283,330381,337081
1629808538342,49254,330359,337011
1629808538352,49220,330317,336998
1629808538362,49178,330306,337011
1629808538372,49153,330289,337017
1629808538382,49120,330194,336982
1629808538392,49081,330222,336989
1629808538402,49059,330213,336933
1629808538412,49039,330199,336949
1629808538422,49026,330189,336870
1629808538432,49014,330205,336879
1629808538442,49011,330185,336859
1629808538452,49001,330184,336830
1629808538462,48995,330172,336813
1629808538472,48993,330187,336774
1629808538482,48997,330195,336827
1629808538492,48981,330139,336811
1629808538502,48989,330146,336786
1629808538512,48993,330137,336784
1629808538522,48982,330155,336784
1629808538532,48981,330124,336834
1629808538542,48990,330153,336759
1629808538552,48977,330130,336786
1629808538562,48986,330157,336816
1629808538572,48987,330143,336790
1629808538582,49001,330136,336782
1629808538592,49008,330170,336799
1629808538602,49036,330229,336797
1629808538612,49054,330200,336812
1629808538622,49073,330203,336804
1629808538632,49077,330230,336836
1629808538642,49097,330251,336813
1629808538652,49124,330267,336816
1629808538662,49147,330256,336854
1629808538672,49166,330318,336824
1629808538682,49210,330325,336822
1629808538692,49216,330397,336852
1629808538702,49242,330398,336854
1629808538712,49268,330415,336840
1629808538722,49294,330423,336867
1629808538732,49325,330447,336865
1629808538742,49354,330463,336856
1629808538752,49379,330437,336869
1629808538762,49413,330499,336909
1629808538772,49444,330541,336927
1629808538782,49477,330585,336944
1629808538792,49510,330586,336912
1629808538802,49538,330607,336904
1629808538812,49568,330659,336957
1629808538822,49603,330663,336994
1629808538832,49632,330683,336948
1629808538842,49658,330683,336989
1629808538852,49689,330736,336966
1629808538862,49736,330757,336985
1629808538872,49758,330831,336987
1629808538882,49794,330831,337009
1629808538892,49824,330872,337057
1629808538902,49855,330900,337020
1629808538912,49889,330925,336978
1629808538922,49919,330929,337000
1629808538932,49950,330986,337047
1629808538942,49983,330988,337068
1629808538952,50009,331088,337039
1629808538962,50042,331094,337050
1629808538972,50080,331082,337086
1629808538982,50122,331138,337068
1629808538992,50157,331163,337085
1629808539002,50180,331222,337128
1629808539012,50224,331242,337124
1629808539022,50263,331272,337128
1629808539032,50291,331300,337118
1629808539042,50331,331284,337096
1629808539052,50347,331255,337103
1629808539062,50360,331162,337035
1629808539072,50334,331065,337041
1629808539082,50302,330994,337012
1629808539092,50263,330899,336981
1629808539102,50212,330817,336921
1629808539112,50146,330695,336938
1629808539122,50080,330610,336878
1629808539132,50027,330581,336843
1629808539142,49953,330575,336864
1629808539152,49914,330551,336842
1629808539162,49876,330490,336819
1629808539172,49834,330467,336849
1629808539182,49804,330449,336824
1629808539192,49771,330438,336843
1629808539202,49741,330439,336836
1629808539212,49719,330428,336765
1629808539222,49698,330363,336782
1629808539232,49674,330340,336750
1629808539242,49648,330314,336768
1629808539252,49629,330315,336769
1629808539262,49614,330344,336771
1629808539272,49613,330316,336785
1629808539282,49604,330314,336774
1629808539292,49599,330374,336716
1629808539302,49595,330340,336730
1629808539312,49610,330367,336740
1629808539322,49609,330377,336751
1629808539332,49594,330379,336735
1629808539342,49594,330344,336744
1629808539352,49596,330359,336773
1629808539362,49589,330342,336755
1629808539372,49586,330319,336758
1629808539382,49582,330362,336750
1629808539392,49566,330348,336703
1629808539402,49570,330303,336735
1629808539412,49570,330351,336708
1629808539422,49568,330354,336730
1629808539432,49572,330354,336761
1629808539442,49579,330352,336731
1629808539452,49581,330375,336744
1629808539462,49591,330405,336742
1629808539472,49602,330405,336699
1629808539482,49618,330405,336770
1629808539492,49626,330458,336772
1629808539502,49638,330427,336754
1629808539512,49650,330440,336778
1629808539522,49673,330510,336808
1629808539532,49691,330505,336727
1629808539542,49706,330531,336785
1629808539552,49724,330557,336795
1629808539562,49747,330581,336793
1629808539572,49770,330600,336803
1629808539582,49791,330622,336838
1629808539592,49818,330618,336840
1629808539602,49851,330672,336849
1629808539612,49869,330687,336881
1629808539622,49908,330730,336832
1629808539632,49939,330737,336869
1629808539642,49961,330727,336896
1629808539652,49982,330818,336889
1629808539662,50016,330833,336947
1629808539672,50040,330849,336926
1629808539682,50067,330875,336924
1629808539692,50097,330920,336943
1629808539702,50124,330969,336917
1629808539712,50152,330993,336969
1629808539722,50184,331015,336971
1629808539732,50215,331010,336951
1629808539742,50240,331031,336947
1629808539752,50266,331068,336942
1629808539762,50291,331084,336995
1629808539772,50336,331111,336988
1629808539782,50350,331118,336978
1629808539792,50378,331150,337031
1629808539802,50417,331150,337002
1629808539812,50446,331207,337005
1629808539822,50479,331249,337024
1629808539832,50508,331247,337049
1629808539842,50545,331352,337008
1629808539852,50567,331252,337018
1629808539862,50592,331260,336976
1629808539872,50585,331167,336949
1629808539882,50573,331122,336941
1629808539892,50547,330986,336861
1629808539902,50506,330868,336844
1629808539912,50440,330795,336808
1629808539922,50372,330698,336764
1629808539932,50305,330605,336721
1629808539942,50226,330550,336705
1629808539952,50152,330489,336687
1629808539962,50072,330417,336647
1629808539972,50021,330368,336637
1629808539982,49971,330311,336602
1629808539992,49927,330294,336631
1629808540002,49867,330303,336577
1629808540012,49831,330263,336592
1629808540022,49799,330206,336519
1629808540032,49770,330203,336550
1629808540042,49723,330184,336531
1629808540052,49691,330138,336518
1629808540062,49660,330099,336488
1629808540072,49632,330072,336473
1629808540082,49606,330104,336465
1629808540092,49588,330075,336480
1629808540102,49575,330098,336487
1629808540112,49570,330070,336431
1629808540122,49545,330079,336477
1629808540132,49547,330055,336447
1629808540142,49538,330050,336458
1629808540152,49525,330069,336429
1629808540162,49517,330056,336464
1629808540172,49498,330034,336434
1629808540182,49490,330030,336413
1629808540192,49480,329994,336391
1629808540202,49461,330014,336406
1629808540212,49459,329997,336398
1629808540222,49447,329976,336402
1629808540232,49433,329988,336375
1629808540242,49434,329968,336378
1629808540252,49427,329999,336338
1629808540262,49425,330001,336400
1629808540272,49421,329972,336394
1629808540282,49434,329985,336371
1629808540292,49434,329997,336328
1629808540302,49448,330002,336365
1629808540312,49452,330046,336339
1629808540322,49461,330037,336357
1629808540332,49471,330054,336358
1629808540342,49483,330075,336375
1629808540352,49505,330113,336414
1629808540362,49519,330093,336381
1629808540372,49535,330135,336404
1629808540382,49563,330142,336431
1629808540392,49577,330150,336400
1629808540402,49597,330222,336416
1629808540412,49630,330263,336442
1629808540422,49658,330237,336417
1629808540432,49677,330280,336433
1629808540442,49697,330293,336433
1629808540452,49709,330324,336421
1629808540462,49748,330346,336468
1629808540472,49775,330363,336447
1629808540482,49796,330402,336457
1629808540492,49810,330431,336494
1629808540502,49838,330464,336490
1629808540512,49868,330507,336448
1629808540522,49895,330532,336521
1629808540532,49919,330556,336453
1629808540542,49946,330515,336466
1629808540552,49968,330572,336515
1629808540562,49994,330573,336485
1629808540572,50027,330596,336538
1629808540582,50054,330622,336488
1629808540592,50075,330666,336541
1629808540602,50107,330718,336531
1629808540612,50120,330740,336550
1629808540622,50148,330800,336598
1629808540632,50164,330792,336606
1629808540642,50204,330782,336548
1629808540652,50230,330864,336610
1629808540662,50263,330860,336600
1629808540672,50285,330893,336574
1629808540682,50306,330857,336541
1629808540692,50335,330876,336587
1629808540702,50347,330844,336538
1629808540712,50333,330710,336526
1629808540722,50294,330643,336503
1629808540732,50247,330553,336483
1629808540742,50192,330417,336425
1629808540752,50107,330322,336372
1629808540762,50015,330226,336339
1629808540772,49910,330100,336257
1629808540782,49818,330033,336261
1629808540792,49727,329960,336223
1629808540802,49637,329867,336189
1629808540812,49569,329829,336218
1629808540822,49499,329819,336196
1629808540832,49440,329780,336163
1629808540842,49372,329740,336144
1629808540852,49313,329659,336143
1629808540862,49257,329635,336099
1629808540872,49202,329554,336074
1629808540882,49149,329551,336028
1629808540892,49115,329486,336041
1629808540902,49062,329501,336029
1629808540912,49022,329520,336036
1629808540922,48977,329443,335971
1629808540932,48952,329402,335997
1629808540942,48913,329376,335983
1629808540952,48898,329388,335998
1629808540962,48887,329393,335987
1629808540972,48870,329436,336001
1629808540982,48852,329399,335996
1629808540992,48835,329385,335978
1629808541002,48820,329378,335978
1629808541012,48797,329327,335968
1629808541022,48789,329357,335988
1629808541032,48778,329360,335963
1629808541042,48759,329309,335951
1629808541052,48727,329283,335962
1629808541062,48723,329297,335911
1629808541072,48701,329324,335899
1629808541082,48699,329307,335917
1629808541092,48688,329311,335918
1629808541102,48676,329326,335925
1629808541112,48668,329296,335957
1629808541122,48675,329299,335918
1629808541132,48661,329293,335953
1629808541142,48661,329297,335966
1629808541152,48672,329314,335919
1629808541162,48674,329349,335944
1629808541172,48682,329422,335962
1629808541182,48692,329387,335955
1629808541192,48712,329362,335965
1629808541202,48724,329464,335948
1629808541212,48738,329471,336004
1629808541222,48749,329523,335996
1629808541232,48776,329514,336000
1629808541242,48801,329523,336007
1629808541252,48819,329577,336054
1629808541262,48843,329534,336060
1629808541272,48867,329647,336039
1629808541282,48892,329682,336076
1629808541292,48907,329710,336095
1629808541302,48933,329734,336101
1629808541312,48952,329733,336111
1629808541322,49000,329745,336142
1629808541332,49015,329806,336127
1629808541342,49045,329823,336159
1629808541352,49067,329886,336149
1629808541362,49103,329955,336152
1629808541372,49127,329958,336183
1629808541382,49164,329979,336222
1629808541392,49182,329987,336232
1629808541402,49211,330039,336232
1629808541412,49246,330106,336243
1629808541422,49268,330091,336275
1629808541432,49300,330140,336284
1629808541442,49334,330186,336268
1629808541452,49367,330199,336287
1629808541462,49391,330242,336297
1629808541472,49426,330311,336331
1629808541482,49454,330282,336333
1629808541492,49487,330339,336358
1629808541502,49512,330353,336370
1629808541512,49546,330414,336382
1629808541522,49586,330456,336395
1629808541532,49615,330428,336392
1629808541542,49634,330432,336384
1629808541552,49635,330383,336374
1629808541562,49622,330276,336346
1629808541572,49590,330148,336277
1629808541582,49523,330087,336256
1629808541592,49445,329920,336227
1629808541602,49356,329792,336172
1629808541612,49237,329662,336153
1629808541622,49131,329595,336129
1629808541632,49036,329480,336112
1629808541642,48949,329432,336040
1629808541652,48862,329432,336035
1629808541662,48792,329394,336042
1629808541672,48728,329310,336011
1629808541682,48680,329299,335992
1629808541692,48615,329218,335991
1629808541702,48566,329237,335990
1629808541712,48515,329157,335974
1629808541722,48469,329149,335950
1629808541732,48428,329117,335951
1629808541742,48379,329093,335934
1629808541752,48347,329089,335923
1629808541762,48303,329017,335918
1629808541772,48284,328985,335898
1629808541782,48260,328979,335900
1629808541792,48240,329011,335878
1629808541802,48234,328991,335919
1629808541812,48213,328991,335886
1629808541822,48208,328990,335889
1629808541832,48210,328984,335889
1629808541842,48190,328996,335869
1629808541852,48185,328939,335886
1629808541862,48182,328947,335900
1629808541872,48167,328908,335844
1629808541882,48161,328896,335834
1629808541892,48136,328883,335848
1629808541902,48124,328883,335876
1629808541912,48104,328850,335859
1629808541922,48101,328866,335839
1629808541932,48102,328853,335824
1629808541942,48099,328851,335862
1629808541952,48098,328829,335848
1629808541962,48104,328875,335806
1629808541972,48118,328855,335854
1629808541982,48130,328929,335861
1629808541992,48136,328929,335864
1629808542002,48147,328964,335859
1629808542012,48168,328957,335883
1629808542022,48185,328968,335883
1629808542032,48209,328991,335907
1629808542042,48239,329005,335856
1629808542052,48236,328993,335891
1629808542062,48269,329055,335905
1629808542072,48289,329058,335912
1629808542082,48322,329083,335905
1629808542092,48351,329163,335957
1629808542102,48374,329154,335965
1629808542112,48390,329169,335962
1629808542122,48423,329203,335990
1629808542132,48453,329282,336009
1629808542142,48483,329252,336027
1629808542152,48512,329327,335982
1629808542162,48541,329376,336023
1629808542172,48572,329365,336020
1629808542182,48607,329364,336011
1629808542192,48647,329402,336045
1629808542202,48674,329444,336043
1629808542212,48703,329499,336097
1629808542222,48737,329495,336082
1629808542232,48768,329536,336090
1629808542242,48809,329608,336127
1629808542252,48860,329600,336148
1629808542262,48871,329576,336131
1629808542272,48898,329695,336157
1629808542282,48946,329709,336198
1629808542292,48965,329770,336197
1629808542302,49009,329774,336195
1629808542312,49040,329839,336214
1629808542322,49075,329887,336269
1629808542332,49109,329912,336230
1629808542342,49149,329954,336251
1629808542352,49187,330006,336261
1629808542362,49227,329955,336257
1629808542372,49229,329874,336234
1629808542382,49225,329827,336215
1629808542392,49189,329700,336153
1629808542402,49130,329551,336138
1629808542412,49057,329476,336085
1629808542422,48964,329402,336105
1629808542432,48874,329301,336053
1629808542442,48787,329175,336022
1629808542452,48703,329114,336031
1629808542462,48627,329112,336030
1629808542472,48584,329049,336022
1629808542482,48525,329030,336020
1629808542492,48472,329018,336001
1629808542502,48431,328977,336020
1629808542512,48395,328944,335993
1629808542522,48368,328933,335999
1629808542532,48336,328890,335951
1629808542542,48322,328913,335962
1629808542552,48285,328873,335972
1629808542562,48269,328854,335968
1629808542572,48248,328865,336008
1629808542582,48232,328879,335983
1629808542592,48224,328875,336040
1629808542602,48219,328920,335947
1629808542612,48229,328891,335946
1629808542622,48230,328897,335965
1629808542632,48226,328950,335999
1629808542642,48235,328939,336009
1629808542652,48230,328929,336014
1629808542662,48233,328896,336015
1629808542672,48227,328927,335994
1629808542682,48232,328933,335976
1629808542692,48222,328903,336021
1629808542702,48217,328874,335996
1629808542712,48206,328880,336019
1629808542722,48204,328913,335985
1629808542732,48197,328882,335979
1629808542742,48197,328868,336006
1629808542752,48206,328913,336038
1629808542762,48207,328902,335981
1629808542772,48225,328928,335964
1629808542782,48238,328932,336018
1629808542792,48239,328954,336032
1629808542802,48255,329001,336035
1629808542812,48282,329012,336053
1629808542822,48292,329041,336053
1629808542832,48319,329067,336085
1629808542842,48346,329113,336142
1629808542852,48378,329128,336095
1629808542862,48397,329146,336158
1629808542872,48428,329165,336133
1629808542882,48442,329213,336138
1629808542892,48476,329195,336149
1629808542902,48506,329269,336166
1629808542912,48525,329290,336208
1629808542922,48561,329321,336210
1629808542932,48591,329348,336238
1629808542942,48622,329409,336258
1629808542952,48658,329413,336261
1629808542962,48693,329480,336286
1629808542972,48732,329433,336268
1629808542982,48765,329503,336291
1629808542992,48793,329577,336283
1629808543002,48829,329535,336310
1629808543012,48843,329571,336351
1629808543022,48882,329579,336290
1629808543032,48926,329580,336322
1629808543042,48942,329646,336362
1629808543052,48984,329674,336382
1629808543062,49021,329696,336372
1629808543072,49051,329732,336409
1629808543082,49085,329759,336392
1629808543092,49112,329825,336422
1629808543102,49153,329804,336419
1629808543112,49185,329867,336467
1629808543122,49218,329884,336433
1629808543132,49244,329914,336444
1629808543142,49264,329840,336427
1629808543152,49247,329752,336321
1629808543162,49228,329625,336334
1629808543172,49179,329542,336321
1629808543182,49096,329425,336278
1629808543192,49019,329312,336222
1629808543202,48932,329159,336179
1629808543212,48832,329072,336128
1629808543222,48742,328991,336103
1629808543232,48660,328894,336047
1629808543242,48587,328854,336027
1629808543252,48523,328799,336031
1629808543262,48474,328791,335981
1629808543272,48424,328755,335969
1629808543282,48375,328748,335945
1629808543292,48335,328630,335906
1629808543302,48302,328661,335953
1629808543312,48266,328633,335876
1629808543322,48235,328581,335904
1629808543332,48212,328594,335863
1629808543342,48188,328593,335888
1629808543352,48171,328521,335882
1629808543362,48158,328549,335911
1629808543372,48154,328523,335879
1629808543382,48135,328519,335888
1629808543392,48152,328505,335854
1629808543402,48141,328566,335918
1629808543412,48148,328534,335915
1629808543422,48150,328527,335926
1629808543432,48154,328552,335948
1629808543442,48143,328507,335888
1629808543452,48144,328565,335900
1629808543462,48144,328501,335896
1629808543472,48141,328496,335900
1629808543482,48137,328475,335903
1629808543492,48130,328505,335914
1629808543502,48138,328467,335862
1629808543512,48140,328471,335868
1629808543522,48135,328470,335918
1629808543532,48147,328458,335916
1629808543542,48162,328484,335916
1629808543552,48173,328498,335907
1629808543562,48188,328572,335925
1629808543572,48204,328512,335932
1629808543582,48225,328545,335956
1629808543592,48239,328552,335949
1629808543602,48260,328576,335952
1629808543612,48272,328579,335962
1629808543622,48297,328598,335997
1629808543632,48326,328614,335957
1629808543642,48345,328653,335958
1629808543652,48375,328660,335975
1629808543662,48394,328743,336009
1629808543672,48430,328745,336010
1629808543682,48460,328705,336044
1629808543692,48486,328786,336017
1629808543702,48522,328793,335999
1629808543712,48554,328832,336079
1629808543722,48574,328900,336049
1629808543732,48608,328899,336105
1629808543742,48643,328924,336083
1629808543752,48664,328932,336080
1629808543762,48696,328964,336101
1629808543772,48738,329054,336138
1629808543782,48763,329001,336136
1629808543792,48799,329095,336153
1629808543802,48827,329122,336161
1629808543812,48861,329176,336178
1629808543822,48888,329139,336173
1629808543832,48938,329216,336203
1629808543842,48965,329189,336203
1629808543852,48993,329261,336197
1629808543862,49020,329245,336210
1629808543872,49066,329275,336232
1629808543882,49090,329351,336263
1629808543892,49129,329376,336286
1629808543902,49162,329392,336301
1629808543912,49199,329406,336306
1629808543922,49231,329457,336286
1629808543932,49264,329468,336333
1629808543942,49280,329411,336277
1629808543952,49258,329324,336245
1629808543962,49245,329231,336202
1629808543972,49193,329140,336195
1629808543982,49139,328976,336160
1629808543992,49061,328889,336109
1629808544002,48969,328731,336075
1629808544012,48893,328720,336027
1629808544022,48793,328620,336005
1629808544032,48724,328529,335999
1629808544042,48653,328521,336000
1629808544052,48590,328461,335983
1629808544062,48528,328448,335940
1629808544072,48479,328409,335964
1629808544082,48427,328336,335921
1629808544092,48379,328319,335937
1629808544102,48336,328283,335947
1629808544112,48295,328236,335919
1629808544122,48258,328179,335918
1629808544132,48209,328198,335910
1629808544142,48179,328172,335886
1629808544152,48152,328159,335894
1629808544162,48126,328126,335916
1629808544172,48100,328112,335893
1629808544182,48080,328109,335937
1629808544192,48069,328130,335900
1629808544202,48060,328117,335908
1629808544212,48062,328095,335903
1629808544222,48040,328061,335932
1629808544232,48040,328045,335915
1629808544242,48037,328037,335886
1629808544252,48036,328063,335909
1629808544262,48027,328061,335917
1629808544272,48023,328011,335857
1629808544282,48013,328053,335914
1629808544292,48026,327984,335918
1629808544302,48010,328012,335895
1629808544312,48002,328012,335902
1629808544322,48006,328003,335884
1629808544332,48023,328035,335893
1629808544342,48029,328022,335910
1629808544352,48032,328014,335936
1629808544362,48037,328056,335911
1629808544372,48046,328046,335897
1629808544382,48061,328102,335921
1629808544392,48076,328101,335928
1629808544402,48089,328093,335914
1629808544412,48106,328142,335927
1629808544422,48121,328157,335924
1629808544432,48148,328198,335963
1629808544442,48173,328161,335987
1629808544452,48196,328210,335973
1629808544462,48226,328243,335965
1629808544472,48256,328284,336016
1629808544482,48282,328298,336045
1629808544492,48305,328344,336004
1629808544502,48328,328337,336073
1629808544512,48362,328385,336039
1629808544522,48396,328414,336020
1629808544532,48414,328447,336069
1629808544542,48440,328489,336075
1629808544552,48464,328501,336087
1629808544562,48501,328533,336106
1629808544572,48540,328545,336099
1629808544582,48564,328632,336119
1629808544592,48598,328626,336144
1629808544602,48630,328657,336154
1629808544612,48660,328674,336156
1629808544622,48692,328698,336152
1629808544632,48728,328697,336185
1629808544642,48756,328775,336199
1629808544652,48778,328773,336192
1629808544662,48810,328835,336218
1629808544672,48840,328785,336231
1629808544682,48876,328900,336234
1629808544692,48898,328873,336276
1629808544702,48942,328968,336299
1629808544712,48973,328942,336287
1629808544722,49003,329009,336297
1629808544732,49041,329021,336286
1629808544742,49077,329084,336344
1629808544752,49110,329063,336342
1629808544762,49136,329060,336325
1629808544772,49156,329029,336311
1629808544782,49157,328965,336277
1629808544792,49132,328897,336265
1629808544802,49095,328749,336226
1629808544812,49025,328649,336182
1629808544822,48962,328525,336156
1629808544832,48882,328496,336144
1629808544842,48798,328443,336126
1629808544852,48735,328336,336107
1629808544862,48670,328288,336081
1629808544872,48606,328212,336028
1629808544882,48555,328219,336103
1629808544892,48501,328200,336051
1629808544902,48461,328162,336048
1629808544912,48410,328105,336026
1629808544922,48372,328082,336034
1629808544932,48336,328059,336019
1629808544942,48305,328053,336003
1629808544952,48266,328006,335963
1629808544962,48228,327967,335949
1629808544972,48213,327955,335979
1629808544982,48179,327900,336009
1629808544992,48148,327916,335955
1629808545002,48143,327917,336001
1629808545012,48137,327906,335969
1629808545022,48135,327891,335983
1629808545032,48127,327912,335985
1629808545042,48116,327951,335943
1629808545052,48120,327915,335916
1629808545062,48123,327925,335923
1629808545072,48116,327865,335957
1629808545082,48115,327904,335980
1629808545092,48117,327896,335964
1629808545102,48107,327893,335945
1629808545112,48109,327892,335951
1629808545122,48101,327875,335958
1629808545132,48107,327845,335931
1629808545142,48116,327871,335952
1629808545152,48114,327883,335951
1629808545162,48113,327915,335979
1629808545172,48127,327910,335944
1629808545182,48140,327896,336000
1629808545192,48142,327930,336004
1629808545202,48162,327985,335988
1629808545212,48176,327966,335983
1629808545222,48193,328019,336010
1629808545232,48213,328024,336020
1629808545242,48228,328029,336007
1629808545252,48247,328068,335997
1629808545262,48277,328123,336073
1629808545272,48298,328076,336049
1629808545282,48332,328087,336049
1629808545292,48356,328146,336065
1629808545302,48384,328206,336070
1629808545312,48402,328188,336088
1629808545322,48427,328231,336101
1629808545332,48469,328256,336095
1629808545342,48480,328304,336126
1629808545352,48514,328315,336109
1629808545362,48544,328305,336095
1629808545372,48576,328314,336119
1629808545382,48597,328352,336145
1629808545392,48630,328428,336143
1629808545402,48655,328449,336168
1629808545412,48703,328467,336149
1629808545422,48723,328518,336181
1629808545432,48752,328511,336216
1629808545442,48801,328576,336249
1629808545452,48832,328596,336222
1629808545462,48864,328636,336276
1629808545472,48894,328623,336280
1629808545482,48918,328686,336304
1629808545492,48950,328697,336272
1629808545502,48979,328725,336294
1629808545512,49011,328733,336322
1629808545522,49046,328809,336299
1629808545532,49072,328872,336324
1629808545542,49107,328843,336354
1629808545552,49150,328878,336357
1629808545562,49181,328956,336365
1629808545572,49219,328938,336378
1629808545582,49253,329034,336408
1629808545592,49300,329055,336411
1629808545602,49335,329058,336405
1629808545612,49357,329051,336413
1629808545622,49372,328988,336367
1629808545632,49361,328927,336340
1629808545642,49335,328850,336273
1629808545652,49309,328699,336239
1629808545662,49249,328588,336283
1629808545672,49177,328516,336221
1629808545682,49114,328462,336169
1629808545692,49039,328365,336156
1629808545702,48986,328359,336169
1629808545712,48937,328352,336127
1629808545722,48888,328287,336117
1629808545732,48855,328263,336154
1629808545742,48816,328263,336138
1629808545752,48787,328219,336162
1629808545762,48751,328189,336099
1629808545772,48731,328228,336090
1629808545782,48700,328218,336083
1629808545792,48681,328158,336071
1629808545802,48638,328119,336016
1629808545812,48613,328126,336058
1629808545822,48597,328083,336036
1629808545832,48581,328102,336041
1629808545842,48563,328087,336036
1629808545852,48554,328119,336082
1629808545862,48563,328117,336081
1629808545872,48555,328118,336071
1629808545882,48558,328069,336048
1629808545892,48554,328101,336060
1629808545902,48557,328095,336049
1629808545912,48557,328057,336036
1629808545922,48558,328094,336086
1629808545932,48550,328111,336057
1629808545942,48551,328084,336061
1629808545952,48544,328064,336037
1629808545962,48546,328061,336037
1629808545972,48545,328012,336027
1629808545982,48542,328045,336015
1629808545992,48539,328054,336038
1629808546002,48543,328089,336042
1629808546012,48548,328144,336046
1629808546022,48553,328115,336050
1629808546032,48562,328152,336085
1629808546042,48574,328176,336080
1629808546052,48585,328199,336054
1629808546062,48608,328216,336079
1629808546072,48616,328228,336072
1629808546082,48638,328253,336093
1629808546092,48654,328291,336113
1629808546102,48689,328334,336108
1629808546112,48701,328315,336123
1629808546122,48720,328378,336164
1629808546132,48750,328433,336137
1629808546142,48769,328359,336150
1629808546152,48791,328489,336197
1629808546162,48814,328535,336201
1629808546172,48839,328550,336176
1629808546182,48874,328529,336267
1629808546192,48902,328555,336245
1629808546202,48936,328637,336236
1629808546212,48962,328679,336232
1629808546222,48986,328697,336292
1629808546232,49016,328735,336307
1629808546242,49040,328778,336310
1629808546252,49086,328792,336270
1629808546262,49110,328814,336326
1629808546272,49137,328864,336319
1629808546282,49169,328881,336317
1629808546292,49198,328904,336334
1629808546302,49227,328950,336346
1629808546312,49253,328974,336351
1629808546322,49274,328968,336381
1629808546332,49308,328982,336382
1629808546342,49327,329052,336417
1629808546352,49356,329106,336393
1629808546362,49394,329099,336420
1629808546372,49426,329172,336450
1629808546382,49456,329169,336431
1629808546392,49504,329220,336449
1629808546402,49528,329267,336505
1629808546412,49553,329212,336480
1629808546422,49577,329178,336457
1629808546432,49577,329103,336388
1629808546442,49560,329041,336354
1629808546452,49534,328965,336376
1629808546462,49492,328870,336315
1629808546472,49431,328775,336292
1629808546482,49363,328707,336298
1629808546492,49290,328639,336288
1629808546502,49234,328624,336287
1629808546512,49179,328493,336269
1629808546522,49127,328490,336214
1629808546532,49075,328455,336242
1629808546542,49034,328456,336225
1629808546552,48989,328450,336191
1629808546562,48957,328431,336196
1629808546572,48937,328368,336184
1629808546582,48888,328391,336166
1629808546592,48863,328344,336185
1629808546602,48829,328335,336165
1629808546612,48797,328313,336117
1629808546622,48767,328250,336167
1629808546632,48753,328227,336163
1629808546642,48729,328255,336178
1629808546652,48712,328285,336174
1629808546662,48710,328272,336179
1629808546672,48708,328272,336160
1629808546682,48702,328293,336163
1629808546692,48701,328310,336159
1629808546702,48702,328275,336158
1629808546712,48693,328256,336149
1629808546722,48711,328316,336164
1629808546732,48705,328272,336167
1629808546742,48688,328213,336148
1629808546752,48685,328253,336144
1629808546762,48680,328292,336154
1629808546772,48687,328273,336167
1629808546782,48679,328222,336142
1629808546792,48681,328243,336136
1629808546802,48681,328219,336115
1629808546812,48681,328265,336149
1629808546822,48695,328259,336134
1629808546832,48695,328255,336159
1629808546842,48704,328324,336133
1629808546852,48715,328347,336134
1629808546862,48730,328284,336146
1629808546872,48744,328379,336170
1629808546882,48764,328377,336148
1629808546892,48784,328374,336179
1629808546902,48791,328460,336176
1629808546912,48803,328467,336223
1629808546922,48836,328520,336222
1629808546932,48853,328480,336215
1629808546942,48888,328514,336204
1629808546952,48910,328547,336227
1629808546962,48933,328559,336250
1629808546972,48961,328619,336302
1629808546982,48981,328656,336268
1629808546992,49008,328661,336327
1629808547002,49043,328743,336308
1629808547012,49076,328753,336339
1629808547022,49099,328813,336314
1629808547032,49135,328771,336360
1629808547042,49149,328852,336320
1629808547052,49177,328880,336358
1629808547062,49214,328887,336378
1629808547072,49257,328949,336404
1629808547082,49275,328927,336373
1629808547092,49312,328966,336410
1629808547102,49340,328973,336465
1629808547112,49370,329028,336416
1629808547122,49397,329012,336412
1629808547132,49435,329102,336473
1629808547142,49464,329188,336478
1629808547152,49484,329176,336488
1629808547162,49511,329172,336502
1629808547172,49547,329182,336498
1629808547182,49580,329196,336518
1629808547192,49610,329283,336494
1629808547202,49644,329299,336489
1629808547212,49680,329307,336520
1629808547222,49710,329376,336567
1629808547232,49750,329431,336578
1629808547242,49772,329453,336629
1629808547252,49815,329453,336594
1629808547262,49846,329477,336608
1629808547272,49880,329589,336643
1629808547282,49901,329514,336621
1629808547292,49912,329478,336598
1629808547302,49912,329402,336574
1629808547312,49889,329264,336519
1629808547322,49853,329205,336490
1629808547332,49797,329098,336479
1629808547342,49731,329050,336432
1629808547352,49660,328941,336402
1629808547362,49580,328843,336406
1629808547372,49509,328801,336383
1629808547382,49433,328763,336376
1629808547392,49369,328705,336315
1629808547402,49310,328659,336334
1629808547412,49247,328620,336311
1629808547422,49191,328598,336300
1629808547432,49145,328548,336295
1629808547442,49100,328528,336295
1629808547452,49055,328526,336247
1629808547462,49008,328460,336243
1629808547472,48965,328456,336262
1629808547482,48903,328408,336229
1629808547492,48873,328403,336219
1629808547502,48831,328338,336221
1629808547512,48805,328306,336197
1629808547522,48775,328310,336171
1629808547532,48758,328299,336186
1629808547542,48736,328329,336186
1629808547552,48736,328338,336182
1629808547562,48736,328353,336195
1629808547572,48716,328305,336213
1629808547582,48721,328311,336187
1629808547592,48698,328266,336207
1629808547602,48693,328297,336170
1629808547612,48686,328300,336151
1629808547622,48676,328319,336162
1629808547632,48668,328267,336204
1629808547642,48658,328250,336141
1629808547652,48650,328287,336143
1629808547662,48646,328248,336123
1629808547672,48647,328222,336148
1629808547682,48640,328250,336148
1629808547692,48627,328267,336154
1629808547702,48639,328264,336115
1629808547712,48657,328266,336152
1629808547722,48657,328300,336165
1629808547732,48675,328310,336179
1629808547742,48669,328346,336146
1629808547752,48680,328313,336199
1629808547762,48694,328341,336238
1629808547772,48711,328333,336188
1629808547782,48721,328367,336144
1629808547792,48740,328349,336190
1629808547802,48756,328405,336184
1629808547812,48773,328438,336212
1629808547822,48792,328484,336215
1629808547832,48826,328508,336230
1629808547842,48847,328520,336233
1629808547852,48861,328520,336283
1629808547862,48901,328572,336233
1629808547872,48916,328634,336248
1629808547882,48945,328676,336299
1629808547892,48966,328684,336292
1629808547902,49002,328704,336320
1629808547912,49012,328751,336298
1629808547922,49051,328801,336332
1629808547932,49077,328814,336296
1629808547942,49104,328816,336342
1629808547952,49134,328844,336361
1629808547962,49171,328903,336391
1629808547972,49203,328918,336373
1629808547982,49232,328994,336414
1629808547992,49257,329036,336425
1629808548002,49292,329087,336434
1629808548012,49329,329074,336421
1629808548022,49356,329104,336445
1629808548032,49395,329098,336464
1629808548042,49433,329189,336499
1629808548052,49457,329170,336491
1629808548062,49491,329273,336513
1629808548072,49522,329295,336518
1629808548082,49551,329310,336529
1629808548092,49585,329328,336560
1629808548102,49621,329363,336560
1629808548112,49657,329436,336606
1629808548122,49682,329501,336609
1629808548132,49721,329467,336587
1629808548142,49754,329540,336651
1629808548152,49794,329569,336683
1629808548162,49833,329617,336644
1629808548172,49868,329649,336697
1629808548182,49902,329653,336653
1629808548192,49931,329620,336647
1629808548202,49934,329541,336616
1629808548212,49923,329492,336583
1629808548222,49902,329372,336582
1629808548232,49864,329259,336553
1629808548242,49796,329202,336492
1629808548252,49725,329060,336469
1629808548262,49644,328978,336438
1629808548272,49567,328871,336426
1629808548282,49488,328851,336405
1629808548292,49420,328840,336408
1629808548302,49359,328782,336380
1629808548312,49301,328744,336411
1629808548322,49250,328742,336383
