timestamp,green,ir,red
1629807853161,57092,328263,337375
1629807853171,57071,328238,337394
1629807853181,57016,328163,337370
1629807853191,56953,328086,337386
1629807853201,56892,328026,337346
1629807853211,56834,328015,337324
1629807853221,56774,327964,337353
1629807853231,56719,328000,337347
1629807853241,56669,327948,337329
1629807853251,56634,327948,337315
1629807853261,56605,327947,337326
1629807853271,56567,327916,337331
1629807853281,56541,327955,337308
1629807853291,56516,327947,337351
1629807853301,56467,327948,337317
1629807853311,56448,327965,337353
1629807853321,56438,327920,337319
1629807853331,56422,327977,337291
1629807853341,56411,327973,337327
1629807853351,56409,327912,337334
1629807853361,56414,327985,337342
1629807853371,56416,327987,337305
1629807853381,56423,328023,337311
1629807853391,56437,328040,337331
1629807853401,56425,328013,337338
1629807853411,56430,328044,337315
1629807853421,56430,328032,337332
1629807853431,56421,327963,337327
1629807853441,56418,327990,337256
1629807853451,56408,328013,337294
1629807853461,56409,327978,337304
1629807853471,56403,327973,337313
1629807853481,56374,327982,337295
1629807853491,56385,327996,337291
1629807853501,56385,327974,337254
1629807853511,56383,328029,337298
1629807853521,56388,327973,337299
1629807853531,56389,327995,337261
1629807853541,56401,328010,337270
1629807853551,56404,328037,337252
1629807853561,56419,328029,337222
1629807853571,56425,328035,337262
1629807853581,56443,327966,337213
1629807853591,56454,328043,337233
1629807853601,56471,328057,337244
1629807853611,56485,328044,337256
1629807853621,56513,328089,337260
1629807853631,56523,328120,337235
1629807853641,56540,328118,337264
1629807853651,56568,328122,337254
1629807853661,56583,328152,337247
1629807853671,56617,328175,337263
1629807853681,56639,328211,337267
1629807853691,56663,328260,337294
1629807853701,56698,328235,337260
1629807853711,56718,328253,337301
1629807853721,56743,328304,337284
1629807853731,56771,328313,337327
1629807853741,56796,328319,337341
1629807853751,56827,328395,337394
1629807853761,56857,328375,337329
1629807853771,56880,328370,337373
1629807853781,56907,328382,337396
1629807853791,56936,328442,337403
1629807853801,56961,328475,337400
1629807853811,56992,328531,337428
1629807853821,57023,328516,337419
1629807853831,57053,328560,337462
1629807853841,57086,328567,337463
1629807853851,57116,328637,337464
1629807853861,57153,328621,337495
1629807853871,57189,328715,337473
1629807853881,57206,328688,337527
1629807853891,57237,328735,337554
1629807853901,57267,328732,337510
1629807853911,57299,328757,337532
1629807853921,57342,328807,337549
1629807853931,57367,328796,337522
1629807853941,57384,328779,337524
1629807853951,57407,328726,337494
1629807853961,57404,328690,337528
1629807853971,57386,328630,337518
1629807853981,57366,328554,337510
1629807853991,57332,328511,337460
1629807854001,57272,328408,337454
1629807854011,57217,328381,337410
1629807854021,57159,328321,337378
1629807854031,57092,328244,337378
1629807854041,57020,328156,337301
1629807854051,56955,328122,337303
1629807854061,56904,328112,337309
1629807854071,56852,328086,337251
1629807854081,56812,328050,337250
1629807854091,56775,328037,337248
1629807854101,56726,328020,337175
1629807854111,56693,328010,337163
1629807854121,56662,327968,337144
1629807854131,56627,327955,337131
1629807854141,56600,327945,337096
1629807854151,56584,327932,337074
1629807854161,56556,327928,337051
1629807854171,56547,327926,337052
1629807854181,56544,327905,337013
1629807854191,56533,327924,337019
1629807854201,56519,327917,336985
1629807854211,56508,327884,336989
1629807854221,56496,327838,336954
1629807854231,56485,327898,336957
1629807854241,56475,327867,336942
1629807854251,56471,327804,336910
1629807854261,56448,327830,336911
1629807854271,56434,327805,336901
1629807854281,56396,327806,336890
1629807854291,56387,327805,336886
1629807854301,56376,327765,336850
1629807854311,56347,327738,336860
1629807854321,56347,327781,336858
1629807854331,56329,327787,336892
1629807854341,56321,327808,336884
1629807854351,56317,327812,336903
1629807854361,56325,327784,336865
1629807854371,56309,327739,336850
1629807854381,56322,327768,336851
1629807854391,56316,327805,336878
1629807854401,56323,327855,336869
1629807854411,56324,327876,336879
1629807854421,56337,327843,336889
1629807854431,56354,327858,336866
1629807854441,56373,327891,336833
1629807854451,56367,327876,336839
1629807854461,56384,327930,336862
1629807854471,56396,327994,336815
1629807854481,56412,327929,336835
1629807854491,56426,327958,336873
1629807854501,56452,327996,336863
1629807854511,56465,328057,336856
1629807854521,56494,328089,336858
1629807854531,56514,328096,336890
1629807854541,56536,328145,336892
1629807854551,56563,328165,336931
1629807854561,56596,328195,336948
1629807854571,56613,328188,336954
1629807854581,56642,328185,336940
1629807854591,56676,328235,336988
1629807854601,56706,328267,336960
1629807854611,56729,328287,336990
1629807854621,56759,328317,337019
1629807854631,56786,328335,337025
1629807854641,56820,328374,337096
1629807854651,56837,328358,337082
1629807854661,56874,328460,337051
1629807854671,56901,328468,337113
1629807854681,56933,328500,337114
1629807854691,56972,328490,337134
1629807854701,57003,328571,337183
1629807854711,57014,328581,337192
1629807854721,57062,328560,337230
1629807854731,57097,328632,337268
1629807854741,57119,328621,337268
1629807854751,57127,328627,337285
1629807854761,57126,328541,337268
1629807854771,57122,328469,337276
1629807854781,57084,328404,337259
1629807854791,57035,328345,337321
1629807854801,56975,328272,337240
1629807854811,56898,328148,337239
1629807854821,56818,328090,337231
1629807854831,56730,327985,337181
1629807854841,56644,327947,337200
1629807854851,56554,327932,337186
1629807854861,56485,327877,337152
1629807854871,56406,327827,337154
1629807854881,56327,327839,337160
1629807854891,56253,327817,337166
1629807854901,56191,327773,337113
1629807854911,56139,327731,337112
1629807854921,56082,327747,337133
1629807854931,56039,327711,337122
1629807854941,55981,327680,337097
1629807854951,55925,327693,337075
1629807854961,55882,327654,337070
1629807854971,55849,327639,337131
1629807854981,55818,327636,337071
1629807854991,55795,327663,337084
1629807855001,55773,327636,337130
1629807855011,55765,327581,337106
1629807855021,55736,327639,337071
1629807855031,55716,327552,337068
1629807855041,55692,327612,337045
1629807855051,55677,327596,337102
1629807855061,55659,327575,337081
1629807855071,55633,327550,337091
1629807855081,55613,327582,337104
1629807855091,55587,327567,337051
1629807855101,55567,327548,337088
1629807855111,55536,327485,337056
1629807855121,55528,327514,337043
1629807855131,55492,327493,337018
1629807855141,55483,327507,337072
1629807855151,55464,327578,337036
1629807855161,55453,327479,337019
1629807855171,55454,327507,337014
1629807855181,55446,327496,337011
1629807855191,55441,327458,337030
1629807855201,55438,327528,337018
1629807855211,55442,327554,337028
1629807855221,55443,327536,337069
1629807855231,55444,327569,337017
1629807855241,55465,327545,337026
1629807855251,55459,327542,337041
1629807855261,55476,327585,337011
1629807855271,55483,327596,337033
1629807855281,55507,327598,337041
1629807855291,55519,327636,337031
1629807855301,55542,327621,337011
1629807855311,55553,327688,337053
1629807855321,55567,327648,337000
1629807855331,55600,327668,337032
1629807855341,55611,327701,337046
1629807855351,55645,327691,337068
1629807855361,55663,327711,337029
1629807855371,55697,327743,337019
1629807855381,55708,327704,337022
1629807855391,55735,327781,337021
1629807855401,55754,327793,337066
1629807855411,55777,327751,337041
1629807855421,55793,327806,337014
1629807855431,55814,327797,337029
1629807855441,55824,327794,337061
1629807855451,55855,327833,337015
1629807855461,55874,327817,337050
1629807855471,55900,327837,337007
1629807855481,55931,327872,337048
1629807855491,55954,327918,337083
1629807855501,55969,327910,337053
1629807855511,56003,327918,337068
1629807855521,56026,327955,337098
1629807855531,56045,327898,337041
1629807855541,56057,327898,337063
1629807855551,56046,327817,337031
1629807855561,56032,327747,337029
1629807855571,55984,327663,336984
1629807855581,55932,327589,337010
1629807855591,55853,327494,336924
1629807855601,55752,327437,336923
1629807855611,55634,327313,336837
1629807855621,55512,327199,336845
1629807855631,55406,327174,336818
1629807855641,55298,327104,336797
1629807855651,55203,327058,336764
1629807855661,55108,327031,336740
1629807855671,55041,326959,336757
1629807855681,54965,326926,336685
1629807855691,54895,326921,336671
1629807855701,54834,326878,336691
1629807855711,54766,326825,336651
1629807855721,54701,326838,336667
1629807855731,54662,326796,336634
1629807855741,54604,326756,336600
1629807855751,54562,326742,336601
1629807855761,54529,326768,336586
1629807855771,54498,326720,336593
1629807855781,54472,326742,336562
1629807855791,54464,326756,336572
1629807855801,54434,326744,336585
1629807855811,54422,326721,336569
1629807855821,54414,326687,336606
1629807855831,54396,326673,336550
1629807855841,54371,326621,336571
1629807855851,54359,326655,336530
1629807855861,54341,326620,336515
1629807855871,54316,326648,336513
1629807855881,54281,326603,336503
1629807855891,54274,326640,336502
1629807855901,54247,326568,336494
1629807855911,54236,326606,336496
1629807855921,54215,326564,336492
1629807855931,54204,326556,336505
1629807855941,54184,326547,336444
1629807855951,54187,326527,336489
1629807855961,54187,326553,336493
1629807855971,54192,326530,336464
1629807855981,54197,326589,336444
1629807855991,54196,326628,336478
1629807856001,54204,326610,336515
1629807856011,54219,326620,336526
1629807856021,54244,326616,336497
1629807856031,54261,326640,336498
1629807856041,54276,326673,336511
1629807856051,54301,326722,336488
1629807856061,54317,326665,336508
1629807856071,54337,326768,336496
1629807856081,54358,326727,336492
1629807856091,54387,326762,336529
1629807856101,54417,326769,336500
1629807856111,54439,326779,336531
1629807856121,54473,326853,336569
1629807856131,54500,326803,336544
1629807856141,54538,326885,336550
1629807856151,54572,326850,336556
1629807856161,54606,326913,336558
1629807856171,54641,326910,336614
1629807856181,54672,326941,336622
1629807856191,54707,326966,336627
1629807856201,54746,326955,336636
1629807856211,54776,326978,336616
1629807856221,54807,327070,336642
1629807856231,54847,327056,336646
1629807856241,54871,327071,336682
1629807856251,54906,327073,336725
1629807856261,54939,327110,336693
1629807856271,54980,327181,336733
1629807856281,55015,327190,336714
1629807856291,55058,327227,336725
1629807856301,55094,327244,336740
1629807856311,55130,327261,336770
1629807856321,55178,327312,336777
1629807856331,55203,327338,336776
1629807856341,55246,327357,336774
1629807856351,55294,327389,336826
1629807856361,55326,327377,336784
1629807856371,55367,327317,336845
1629807856381,55369,327342,336835
1629807856391,55374,327311,336832
1629807856401,55360,327189,336827
1629807856411,55319,327146,336787
1629807856421,55275,327099,336790
1629807856431,55198,326996,336780
1629807856441,55114,326961,336759
1629807856451,55023,326858,336780
1629807856461,54940,326860,336713
1629807856471,54857,326818,336726
1629807856481,54794,326767,336723
1629807856491,54731,326748,336767
1629807856501,54687,326759,336771
1629807856511,54640,326773,336742
1629807856521,54599,326742,336757
1629807856531,54558,326669,336736
1629807856541,54522,326716,336756
1629807856551,54488,326672,336754
1629807856561,54451,326667,336733
1629807856571,54430,326641,336716
1629807856581,54408,326656,336761
1629807856591,54387,326697,336753
1629807856601,54394,326695,336755
1629807856611,54386,326665,336771
1629807856621,54381,326699,336773
1629807856631,54382,326719,336798
1629807856641,54373,326720,336742
1629807856651,54376,326701,336745
1629807856661,54363,326693,336781
1629807856671,54358,326670,336736
1629807856681,54345,326656,336793
1629807856691,54335,326608,336796
1629807856701,54319,326618,336785
1629807856711,54299,326622,336720
1629807856721,54297,326644,336726
1629807856731,54282,326610,336757
1629807856741,54273,326583,336712
1629807856751,54272,326631,336725
1629807856761,54266,326613,336736
1629807856771,54274,326612,336730
1629807856781,54271,326652,336722
1629807856791,54275,326659,336754
1629807856801,54291,326633,336757
1629807856811,54306,326588,336725
1629807856821,54327,326686,336775
1629807856831,54347,326666,336789
1629807856841,54357,326679,336803
1629807856851,54375,326728,336773
1629807856861,54401,326747,336779
1629807856871,54431,326721,336815
1629807856881,54442,326756,336804
1629807856891,54479,326832,336789
1629807856901,54499,326826,336790
1629807856911,54532,326811,336803
1629807856921,54574,326847,336817
1629807856931,54606,326900,336792
1629807856941,54631,326862,336844
1629807856951,54665,326911,336832
1629807856961,54707,326926,336854
1629807856971,54737,326968,336859
1629807856981,54778,326968,336874
1629807856991,54807,326996,336858
1629807857001,54868,327021,336887
1629807857011,54891,327012,336906
1629807857021,54931,327087,336942
1629807857031,54973,327091,336932
1629807857041,54998,327118,336945
1629807857051,55039,327186,336924
1629807857061,55065,327138,336932
1629807857071,55103,327176,336943
1629807857081,55144,327264,336978
1629807857091,55183,327291,337009
1629807857101,55228,327260,337002
1629807857111,55247,327286,337033
1629807857121,55302,327338,337039
1629807857131,55333,327344,337045
1629807857141,55379,327387,337059
1629807857151,55435,327374,337088
1629807857161,55474,327434,337090
1629807857171,55511,327441,337051
1629807857181,55554,327488,337126
1629807857191,55589,327523,337141
1629807857201,55624,327555,337173
1629807857211,55684,327577,337166
1629807857221,55717,327601,337155
1629807857231,55750,327521,337207
1629807857241,55774,327554,337196
1629807857251,55784,327480,337162
1629807857261,55787,327446,337170
1629807857271,55760,327393,337194
1629807857281,55720,327282,337159
1629807857291,55659,327215,337153
1629807857301,55588,327199,337138
1629807857311,55514,327140,337092
1629807857321,55440,327135,337130
1629807857331,55383,327040,337093
1629807857341,55316,327033,337099
1629807857351,55265,327028,337076
1629807857361,55225,327025,337060
1629807857371,55179,327007,337066
1629807857381,55149,326978,337056
1629807857391,55119,326926,337067
1629807857401,55083,326986,337065
1629807857411,55065,326933,337035
1629807857421,55049,326938,337032
1629807857431,55019,326932,337057
1629807857441,55004,326934,337013
1629807857451,54996,326931,337048
1629807857461,54998,326959,337078
1629807857471,55009,326974,337036
1629807857481,55005,326981,337085
1629807857491,54993,326996,337040
1629807857501,54999,327013,337006
1629807857511,54990,327048,337053
1629807857521,55006,326967,337089
1629807857531,54989,326976,337043
1629807857541,54977,326989,337009
1629807857551,54963,326942,337055
1629807857561,54971,326958,337053
1629807857571,54953,326956,337018
1629807857581,54940,326914,337039
1629807857591,54935,326987,337038
1629807857601,54931,326951,337055
1629807857611,54933,326954,337019
1629807857621,54932,326950,337052
1629807857631,54949,326963,337043
1629807857641,54942,327017,337058
1629807857651,54971,327010,337027
1629807857661,54968,327015,337040
1629807857671,54982,327037,337060
1629807857681,55005,327036,337091
1629807857691,55022,327084,337071
1629807857701,55036,327118,337080
1629807857711,55055,327103,337097
1629807857721,55084,327099,337054
1629807857731,55107,327133,337103
1629807857741,55145,327134,337099
1629807857751,55173,327161,337099
1629807857761,55200,327159,337125
1629807857771,55235,327215,337095
1629807857781,55265,327248,337135
1629807857791,55304,327257,337119
1629807857801,55340,327314,337130
1629807857811,55373,327344,337153
1629807857821,55405,327330,337130
1629807857831,55440,327303,337156
1629807857841,55482,327359,337165
1629807857851,55517,327430,337171
1629807857861,55558,327438,337185
1629807857871,55585,327494,337209
1629807857881,55623,327458,337218
1629807857891,55656,327540,337219
1629807857901,55695,327561,337245
1629807857911,55732,327522,337223
1629807857921,55772,327607,337240
1629807857931,55815,327611,337266
1629807857941,55844,327581,337265
1629807857951,55886,327663,337245
1629807857961,55932,327651,337291
1629807857971,55969,327673,337325
1629807857981,56016,327703,337291
1629807857991,56061,327727,337294
1629807858001,56091,327764,337280
1629807858011,56128,327785,337353
1629807858021,56160,327806,337324
1629807858031,56209,327814,337320
1629807858041,56243,327819,337377
1629807858051,56283,327862,337351
1629807858061,56321,327872,337375
1629807858071,56360,327912,337378
1629807858081,56400,327929,337375
1629807858091,56435,327987,337364
1629807858101,56482,327984,337385
1629807858111,56523,328037,337393
1629807858121,56586,328061,337399
1629807858131,56620,328095,337395
1629807858141,56672,328133,337453
1629807858151,56707,328084,337443
1629807858161,56752,328076,337436
1629807858171,56759,328084,337429
1629807858181,56771,327960,337422
1629807858191,56767,327954,337401
1629807858201,56746,327885,337400
1629807858211,56712,327825,337389
1629807858221,56656,327767,337397
1629807858231,56578,327713,337366
1629807858241,56524,327591,337331
1629807858251,56451,327587,337339
1629807858261,56391,327572,337311
1629807858271,56331,327543,337302
1629807858281,56280,327546,337297
1629807858291,56253,327482,337232
1629807858301,56205,327473,337276
1629807858311,56151,327465,337284
1629807858321,56129,327460,337262
1629807858331,56083,327404,337248
1629807858341,56036,327388,337225
1629807858351,56016,327365,337230
1629807858361,55983,327366,337185
1629807858371,55955,327362,337191
1629807858381,55915,327339,337188
1629807858391,55881,327340,337189
1629807858401,55869,327324,337178
1629807858411,55846,327348,337157
1629807858421,55837,327336,337158
1629807858431,55833,327352,337131
1629807858441,55819,327311,337132
1629807858451,55804,327299,337120
1629807858461,55788,327322,337117
1629807858471,55767,327308,337111
1629807858481,55748,327255,337087
1629807858491,55742,327235,337091
1629807858501,55717,327225,337076
1629807858511,55698,327288,337070
1629807858521,55681,327223,337092
1629807858531,55663,327242,337057
1629807858541,55650,327191,337069
1629807858551,55638,327217,337033
1629807858561,55634,327239,337052
1629807858571,55620,327233,336993
1629807858581,55614,327189,336997
1629807858591,55618,327197,336999
1629807858601,55626,327138,336976
1629807858611,55625,327161,336959
1629807858621,55634,327244,336952
1629807858631,55634,327207,336971
1629807858641,55649,327183,336997
1629807858651,55655,327185,336968
1629807858661,55667,327260,336986
1629807858671,55690,327254,336989
1629807858681,55709,327269,336946
1629807858691,55721,327277,336941
1629807858701,55737,327281,336913
1629807858711,55762,327334,336964
1629807858721,55787,327317,336965
1629807858731,55817,327325,336955
1629807858741,55837,327352,336949
1629807858751,55864,327367,336944
1629807858761,55892,327392,336969
1629807858771,55916,327381,336942
1629807858781,55937,327434,336928
1629807858791,55970,327424,336916
1629807858801,56001,327426,336958
1629807858811,56030,327429,336961
1629807858821,56051,327492,336935
1629807858831,56070,327489,336972
1629807858841,56097,327515,336930
1629807858851,56136,327528,336945
1629807858861,56156,327552,336958
1629807858871,56191,327521,336929
1629807858881,56212,327534,336942
1629807858891,56249,327587,336940
1629807858901,56276,327595,336921
1629807858911,56303,327642,336922
1629807858921,56343,327601,336918
1629807858931,56381,327689,336951
1629807858941,56415,327690,336914
1629807858951,56452,327654,336950
1629807858961,56482,327734,336961
1629807858971,56521,327740,336994
1629807858981,56561,327802,336996
1629807858991,56597,327852,337001
1629807859001,56648,327882,337014
1629807859011,56680,327901,337066
1629807859021,56718,327952,337071
1629807859031,56761,328031,337085
1629807859041,56807,328087,337148
1629807859051,56834,328041,337135
1629807859061,56876,328105,337146
1629807859071,56921,328131,337151
1629807859081,56960,328209,337165
1629807859091,57022,328218,337246
1629807859101,57063,328244,337221
1629807859111,57107,328284,337204
1629807859121,57132,328275,337215
1629807859131,57185,328303,337176
1629807859141,57220,328311,337183
1629807859151,57250,328299,337200
1629807859161,57302,328366,337160
1629807859171,57349,328391,337199
1629807859181,57380,328359,337174
1629807859191,57396,328300,337147
1629807859201,57414,328252,337152
1629807859211,57424,328267,337177
1629807859221,57419,328190,337122
1629807859231,57395,328136,337121
1629807859241,57367,328079,337111
1629807859251,57320,327982,337063
1629807859261,57273,327907,337035
1629807859271,57202,327883,337025
1629807859281,57130,327749,336986
1629807859291,57056,327708,336980
1629807859301,57002,327704,336913
1629807859311,56942,327681,336925
1629807859321,56889,327595,336878
1629807859331,56825,327596,336869
1629807859341,56779,327531,336812
1629807859351,56737,327505,336816
1629807859361,56695,327472,336816
1629807859371,56639,327432,336775
1629807859381,56590,327415,336729
1629807859391,56539,327347,336687
1629807859401,56493,327334,336698
1629807859411,56465,327312,336648
1629807859421,56417,327284,336637
1629807859431,56406,327324,336594
1629807859441,56371,327301,336586
1629807859451,56348,327251,336603
1629807859461,56329,327253,336538
1629807859471,56295,327220,336564
1629807859481,56273,327224,336550
1629807859491,56258,327229,336502
1629807859501,56243,327191,336516
1629807859511,56217,327209,336475
1629807859521,56188,327161,336459
1629807859531,56160,327165,336475
1629807859541,56132,327130,336470
1629807859551,56110,327134,336426
1629807859561,56095,327105,336451
1629807859571,56077,327102,336410
1629807859581,56060,327068,336384
1629807859591,56048,327105,336393
1629807859601,56030,327108,336394
1629807859611,56025,327103,336370
1629807859621,56014,327049,336364
1629807859631,56006,327082,336333
1629807859641,56004,327062,336316
1629807859651,55998,327070,336324
1629807859661,56001,327092,336325
1629807859671,56008,327127,336323
1629807859681,56025,327110,336303
1629807859691,56028,327118,336284
1629807859701,56039,327126,336279
1629807859711,56043,327111,336271
1629807859721,56061,327137,336305
1629807859731,56068,327181,336309
1629807859741,56098,327153,336306
1629807859751,56100,327192,336301
1629807859761,56126,327222,336257
1629807859771,56146,327218,336250
1629807859781,56177,327179,336271
1629807859791,56185,327246,336258
1629807859801,56207,327225,336267
1629807859811,56222,327252,336266
1629807859821,56255,327279,336245
1629807859831,56278,327294,336275
1629807859841,56308,327276,336256
1629807859851,56333,327288,336245
1629807859861,56343,327312,336256
1629807859871,56378,327312,336242
1629807859881,56396,327353,336258
1629807859891,56430,327335,336255
1629807859901,56461,327348,336243
1629807859911,56494,327402,336267
1629807859921,56516,327355,336220
1629807859931,56538,327422,336259
1629807859941,56569,327425,336264
1629807859951,56602,327412,336225
1629807859961,56617,327410,336250
1629807859971,56653,327456,336240
1629807859981,56677,327488,336256
1629807859991,56702,327504,336270
1629807860001,56737,327524,336282
1629807860011,56764,327558,336238
1629807860021,56790,327595,336274
1629807860031,56827,327560,336296
1629807860041,56856,327599,336277
1629807860051,56889,327595,336295
1629807860061,56916,327648,336273
1629807860071,56964,327671,336298
1629807860081,56989,327671,336272
1629807860091,57016,327690,336302
1629807860101,57044,327724,336273
1629807860111,57085,327743,336279
1629807860121,57102,327769,336299
1629807860131,57139,327757,336321
1629807860141,57173,327815,336329
1629807860151,57203,327796,336318
1629807860161,57241,327848,336360
1629807860171,57276,327873,336320
1629807860181,57312,327881,336353
1629807860191,57338,327879,336322
1629807860201,57373,327876,336365
1629807860211,57399,327870,336394
1629807860221,57413,327870,336317
1629807860231,57419,327837,336329
1629807860241,57426,327768,336317
1629807860251,57399,327763,336288
1629807860261,57360,327625,336316
1629807860271,57338,327608,336279
1629807860281,57291,327556,336241
1629807860291,57227,327478,336244
1629807860301,57159,327400,336200
1629807860311,57108,327385,336204
1629807860321,57043,327332,336163
1629807860331,56984,327250,336169
1629807860341,56935,327233,336192
1629807860351,56887,327247,336148
1629807860361,56838,327229,336092
1629807860371,56800,327177,336112
1629807860381,56757,327189,336102
1629807860391,56704,327113,336068
1629807860401,56689,327099,336085
1629807860411,56631,327080,336038
1629807860421,56604,327107,336066
1629807860431,56570,327052,336049
1629807860441,56534,327061,336046
1629807860451,56507,327055,336047
1629807860461,56492,327084,336057
1629807860471,56477,327054,336025
1629807860481,56462,327042,336053
1629807860491,56444,327061,336030
1629807860501,56425,327061,335995
1629807860511,56412,327071,336035
1629807860521,56392,327005,336025
1629807860531,56373,327006,336003
1629807860541,56353,327021,335999
1629807860551,56341,326978,336000
1629807860561,56319,326985,335987
1629807860571,56294,326931,335953
1629807860581,56268,326928,336010
1629807860591,56266,326942,335970
1629807860601,56233,326886,335943
1629807860611,56211,326923,335940
1629807860621,56198,326909,335895
1629807860631,56193,326948,335927
1629807860641,56183,326915,335948
1629807860651,56181,326949,335936
1629807860661,56178,326930,335903
1629807860671,56183,326948,335903
1629807860681,56175,326967,335926
1629807860691,56178,326944,335933
1629807860701,56187,326983,335918
1629807860711,56194,326962,335938
1629807860721,56202,327008,335925
1629807860731,56215,327028,335930
1629807860741,56239,327064,335927
1629807860751,56235,327091,335934
1629807860761,56251,327090,335942
1629807860771,56255,327065,335915
1629807860781,56270,327072,335956
1629807860791,56288,327118,335943
1629807860801,56315,327111,335969
1629807860811,56322,327118,335926
1629807860821,56348,327153,335956
1629807860831,56358,327157,335981
1629807860841,56381,327189,335976
1629807860851,56403,327173,335995
1629807860861,56419,327224,335979
1629807860871,56437,327245,336034
1629807860881,56462,327256,336039
1629807860891,56497,327279,336073
1629807860901,56511,327272,336074
1629807860911,56533,327333,336062
1629807860921,56560,327350,336054
1629807860931,56579,327367,336088
1629807860941,56604,327434,336090
1629807860951,56622,327422,336112
1629807860961,56651,327471,336169
1629807860971,56669,327481,336180
1629807860981,56700,327574,336208
1629807860991,56727,327563,336247
1629807861001,56766,327612,336285
1629807861011,56788,327631,336306
1629807861021,56827,327724,336362
1629807861031,56878,327710,336430
1629807861041,56894,327728,336423
1629807861051,56927,327821,336464
1629807861061,56968,327874,336514
1629807861071,56989,327907,336579
1629807861081,57034,327947,336584
1629807861091,57070,327998,336664
1629807861101,57104,328065,336712
1629807861111,57164,328176,336757
1629807861121,57186,328148,336790
1629807861131,57229,328256,336867
1629807861141,57271,328292,336900
1629807861151,57312,328331,336988
1629807861161,57356,328402,337028
1629807861171,57410,328479,337101
1629807861181,57440,328530,337141
1629807861191,57481,328545,337152
1629807861201,57527,328535,337184
1629807861211,57550,328554,337236
1629807861221,57574,328504,337254
1629807861231,57582,328528,337219
1629807861241,57566,328455,337226
1629807861251,57560,328417,337224
1629807861261,57528,328417,337244
1629807861271,57503,328320,337243
1629807861281,57475,328298,337243
1629807861291,57420,328212,337254
1629807861301,57362,328215,337231
1629807861311,57327,328201,337279
1629807861321,57290,328209,337262
1629807861331,57253,328146,337259
1629807861341,57228,328168,337310
1629807861351,57199,328168,337326
1629807861361,57170,328199,337345
1629807861371,57156,328200,337360
1629807861381,57127,328176,337339
1629807861391,57111,328223,337376
1629807861401,57106,328235,337413
1629807861411,57087,328220,337423
1629807861421,57081,328276,337462
1629807861431,57069,328260,337487
1629807861441,57075,328333,337496
1629807861451,57081,328344,337495
1629807861461,57092,328396,337569
1629807861471,57099,328413,337566
1629807861481,57116,328418,337639
1629807861491,57121,328473,337636
1629807861501,57141,328494,337712
1629807861511,57145,328533,337708
1629807861521,57160,328592,337718
1629807861531,57152,328553,337756
1629807861541,57167,328609,337795
1629807861551,57184,328628,337842
1629807861561,57181,328640,337840
1629807861571,57195,328613,337881
1629807861581,57201,328667,337905
1629807861591,57212,328688,337895
1629807861601,57216,328706,337931
1629807861611,57229,328704,337972
1629807861621,57244,328775,337962
1629807861631,57257,328755,338006
1629807861641,57264,328835,338003
1629807861651,57291,328785,338024
1629807861661,57317,328833,338038
1629807861671,57343,328863,338019
1629807861681,57355,328906,338102
1629807861691,57386,328889,338127
1629807861701,57416,328971,338101
1629807861711,57431,328976,338157
1629807861721,57464,328959,338175
1629807861731,57490,329052,338187
1629807861741,57509,329020,338218
1629807861751,57532,329087,338225
1629807861761,57562,329145,338205
1629807861771,57593,329165,338256
1629807861781,57622,329222,338285
1629807861791,57650,329221,338310
1629807861801,57687,329213,338326
1629807861811,57711,329217,338322
1629807861821,57740,329261,338316
1629807861831,57764,329313,338334
1629807861841,57802,329303,338313
1629807861851,57822,329362,338342
1629807861861,57865,329382,338312
1629807861871,57896,329453,338394
1629807861881,57935,329453,338385
1629807861891,57947,329402,338435
1629807861901,57970,329444,338399
1629807861911,58017,329506,338389
1629807861921,58047,329489,338407
1629807861931,58066,329522,338439
1629807861941,58107,329506,338400
1629807861951,58130,329575,338438
1629807861961,58167,329622,338473
1629807861971,58201,329601,338465
1629807861981,58231,329590,338477
1629807861991,58266,329705,338495
1629807862001,58310,329692,338502
1629807862011,58332,329661,338533
1629807862021,58364,329728,338508
1629807862031,58399,329716,338511
1629807862041,58430,329746,338478
1629807862051,58457,329761,338511
1629807862061,58498,329781,338528
1629807862071,58530,329814,338549
1629807862081,58561,329843,338560
1629807862091,58590,329855,338577
1629807862101,58619,329884,338571
1629807862111,58653,329877,338608
1629807862121,58690,329970,338583
1629807862131,58731,329926,338601
1629807862141,58764,329954,338594
1629807862151,58794,329970,338604
1629807862161,58832,329931,338573
1629807862171,58839,329931,338572
1629807862181,58845,329887,338599
1629807862191,58856,329859,338566
1629807862201,58847,329767,338545
1629807862211,58827,329771,338576
1629807862221,58798,329671,338537
1629807862231,58776,329682,338462
1629807862241,58743,329576,338532
1629807862251,58709,329505,338474
1629807862261,58677,329473,338442
1629807862271,58614,329435,338454
1629807862281,58586,329438,338443
1629807862291,58539,329345,338408
1629807862301,58504,329347,338448
1629807862311,58487,329301,338423
1629807862321,58454,329289,338441
1629807862331,58424,329267,338419
1629807862341,58401,329248,338371
1629807862351,58375,329261,338380
1629807862361,58351,329199,338367
1629807862371,58322,329215,338370
1629807862381,58304,329210,338366
1629807862391,58279,329203,338342
1629807862401,58278,329183,338331
1629807862411,58268,329192,338366
1629807862421,58261,329221,338356
1629807862431,58266,329163,338341
1629807862441,58262,329173,338399
1629807862451,58253,329166,338371
1629807862461,58249,329175,338320
1629807862471,58240,329163,338370
1629807862481,58229,329140,338335
1629807862491,58225,329184,338360
1629807862501,58223,329134,338363
1629807862511,58213,329137,338349
1629807862521,58201,329098,338347
1629807862531,58202,329173,338353
1629807862541,58197,329087,338346
1629807862551,58196,329113,338340
1629807862561,58186,329122,338329
1629807862571,58192,329104,338339
1629807862581,58193,329126,338331
1629807862591,58193,329159,338313
1629807862601,58208,329145,338329
1629807862611,58202,329146,338358
1629807862621,58215,329140,338359
1629807862631,58218,329167,338334
1629807862641,58234,329204,338341
1629807862651,58243,329167,338345
1629807862661,58260,329220,338366
1629807862671,58269,329215,338370
1629807862681,58284,329229,338337
1629807862691,58304,329244,338335
1629807862701,58318,329271,338347
1629807862711,58346,329327,338337
1629807862721,58351,329269,338337
1629807862731,58373,329268,338365
1629807862741,58397,329293,338345
1629807862751,58403,329325,338342
1629807862761,58427,329304,338380
1629807862771,58465,329337,338374
1629807862781,58483,329366,338369
1629807862791,58498,329377,338331
1629807862801,58523,329416,338361
1629807862811,58540,329400,338383
1629807862821,58569,329426,338390
1629807862831,58602,329452,338461
1629807862841,58629,329520,338368
1629807862851,58645,329525,338406
1629807862861,58682,329497,338400
1629807862871,58701,329550,338444
1629807862881,58727,329552,338429
1629807862891,58756,329599,338412
1629807862901,58779,329607,338445
1629807862911,58812,329630,338438
1629807862921,58846,329638,338468
1629807862931,58868,329696,338477
1629807862941,58889,329720,338451
1629807862951,58924,329717,338478
1629807862961,58955,329695,338475
1629807862971,58972,329770,338524
1629807862981,59014,329765,338493
1629807862991,59048,329809,338481
1629807863001,59076,329811,338507
1629807863011,59097,329900,338516
1629807863021,59133,329857,338536
1629807863031,59161,329897,338608
1629807863041,59193,329914,338563
1629807863051,59216,329956,338571
1629807863061,59249,329956,338584
1629807863071,59292,329989,338591
1629807863081,59325,330000,338607
1629807863091,59367,330059,338641
1629807863101,59399,330090,338628
1629807863111,59426,330098,338647
1629807863121,59450,330098,338643
1629807863131,59477,330052,338655
1629807863141,59491,330023,338630
1629807863151,59488,329990,338620
1629807863161,59479,329883,338625
1629807863171,59472,329851,338569
1629807863181,59445,329822,338560
1629807863191,59416,329706,338557
1629807863201,59371,329651,338544
1629807863211,59329,329602,338517
1629807863221,59274,329559,338507
1629807863231,59226,329554,338498
1629807863241,59170,329485,338478
1629807863251,59127,329443,338468
1629807863261,59088,329424,338418
1629807863271,59046,329359,338475
1629807863281,59008,329345,338450
1629807863291,58960,329314,338423
1629807863301,58942,329269,338436
1629807863311,58914,329279,338442
1629807863321,58881,329277,338420
1629807863331,58850,329254,338419
1629807863341,58814,329222,338431
1629807863351,58789,329242,338435
1629807863361,58772,329236,338430
1629807863371,58754,329210,338400
1629807863381,58734,329229,338414
1629807863391,58723,329243,338416
1629807863401,58714,329203,338398
1629807863411,58717,329261,338445
1629807863421,58705,329214,338413
1629807863431,58687,329223,338417
1629807863441,58671,329221,338389
1629807863451,58665,329210,338401
1629807863461,58668,329242,338387
1629807863471,58651,329192,338392
1629807863481,58644,329201,338391
1629807863491,58627,329179,338366
1629807863501,58610,329122,338393
1629807863511,58598,329157,338314
1629807863521,58596,329163,338345
1629807863531,58571,329116,338366
1629807863541,58570,329146,338362
1629807863551,58567,329148,338299
1629807863561,58569,329145,338359
1629807863571,58567,329164,338350
1629807863581,58575,329133,338338
1629807863591,58578,329145,338332
1629807863601,58578,329158,338343
1629807863611,58592,329149,338318
1629807863621,58603,329190,338338
1629807863631,58607,329191,338279
1629807863641,58612,329138,338294
1629807863651,58632,329215,338281
1629807863661,58630,329179,338281
1629807863671,58640,329160,338216
1629807863681,58655,329187,338230
1629807863691,58656,329143,338185
1629807863701,58665,329188,338170
1629807863711,58667,329177,338131
1629807863721,58675,329194,338110
1629807863731,58689,329182,338078
1629807863741,58702,329173,338071
1629807863751,58717,329160,338004
1629807863761,58736,329160,338023
1629807863771,58762,329185,338040
1629807863781,58783,329231,337998
1629807863791,58800,329161,337979
1629807863801,58813,329164,337978
1629807863811,58840,329200,337991
1629807863821,58855,329181,337950
1629807863831,58880,329210,337997
1629807863841,58894,329207,337988
1629807863851,58911,329226,337973
1629807863861,58922,329173,337959
1629807863871,58953,329313,337970
1629807863881,58968,329275,337983
1629807863891,58987,329302,337985
1629807863901,59011,329295,337958
1629807863911,59041,329293,337933
1629807863921,59064,329307,337919
1629807863931,59084,329374,337917
1629807863941,59102,329337,337922
1629807863951,59127,329319,337895
1629807863961,59149,329387,337894
1629807863971,59168,329361,337905
1629807863981,59196,329336,337909
1629807863991,59221,329398,337910
1629807864001,59236,329398,337895
1629807864011,59263,329430,337898
1629807864021,59284,329467,337858
1629807864031,59310,329415,337915
1629807864041,59342,329460,337909
1629807864051,59360,329455,337903
1629807864061,59390,329447,337924
1629807864071,59420,329533,337915
1629807864081,59446,329497,337913
1629807864091,59484,329525,337922
1629807864101,59509,329563,337944
1629807864111,59529,329547,337944
1629807864121,59555,329509,337935
1629807864131,59559,329515,337899
1629807864141,59552,329422,337903
1629807864151,59533,329335,337881
1629807864161,59514,329295,337838
1629807864171,59482,329280,337848
1629807864181,59437,329176,337848
1629807864191,59395,329144,337789
1629807864201,59342,329034,337798
1629807864211,59288,328974,337762
1629807864221,59225,328963,337725
1629807864231,59157,328855,337726
1629807864241,59100,328813,337673
1629807864251,59054,328763,337648
1629807864261,58996,328765,337629
1629807864271,58960,328743,337637
1629807864281,58915,328667,337589
1629807864291,58878,328606,337606
1629807864301,58833,328594,337568
1629807864311,58796,328568,337539
1629807864321,58735,328560,337508
1629807864331,58703,328538,337498
1629807864341,58678,328527,337498
1629807864351,58647,328464,337466
1629807864361,58609,328481,337493
1629807864371,58601,328486,337414
1629807864381,58567,328486,337447
1629807864391,58550,328492,337422
1629807864401,58528,328450,337423
1629807864411,58509,328458,337402
1629807864421,58497,328432,337428
1629807864431,58485,328379,337396
1629807864441,58463,328418,337389
1629807864451,58432,328354,337374
1629807864461,58402,328332,337368
1629807864471,58381,328294,337324
1629807864481,58355,328287,337297
1629807864491,58330,328299,337314
1629807864501,58310,328241,337264
1629807864511,58284,328280,337256
1629807864521,58260,328274,337239
1629807864531,58256,328239,337196
1629807864541,58241,328289,337216
1629807864551,58226,328226,337234
1629807864561,58212,328228,337210
1629807864571,58217,328243,337215
1629807864581,58210,328263,337204
1629807864591,58228,328263,337258
1629807864601,58222,328265,337254
1629807864611,58221,328307,337236
1629807864621,58212,328318,337248
1629807864631,58216,328266,337193
1629807864641,58210,328245,337194
1629807864651,58224,328223,337183
1629807864661,58234,328285,337167
1629807864671,58234,328243,337078
1629807864681,58245,328205,337093
1629807864691,58238,328217,337016
1629807864701,58255,328248,337028
1629807864711,58248,328223,336974
1629807864721,58260,328196,337000
1629807864731,58276,328236,336987
1629807864741,58284,328215,336946
1629807864751,58307,328257,336952
1629807864761,58318,328284,336971
1629807864771,58360,328326,337005
1629807864781,58370,328337,337067
1629807864791,58388,328380,337081
1629807864801,58403,328449,337092
1629807864811,58429,328445,337141
1629807864821,58449,328488,337187
1629807864831,58474,328567,337242
1629807864841,58507,328531,337204
1629807864851,58513,328532,337235
1629807864861,58542,328596,337279
1629807864871,58555,328637,337293
1629807864881,58582,328672,337306
1629807864891,58613,328680,337339
1629807864901,58640,328699,337294
1629807864911,58665,328744,337385
1629807864921,58675,328778,337375
1629807864931,58713,328757,337363
1629807864941,58737,328843,337399
1629807864951,58762,328858,337385
1629807864961,58780,328832,337399
1629807864971,58803,328876,337405
1629807864981,58825,328904,337417
1629807864991,58856,328914,337447
1629807865001,58877,328950,337468
1629807865011,58904,328958,337438
1629807865021,58930,328993,337465
1629807865031,58966,329013,337462
1629807865041,58991,329066,337489
1629807865051,59021,329119,337486
1629807865061,59049,329102,337492
1629807865071,59068,329108,337487
1629807865081,59103,329119,337491
1629807865091,59130,329116,337501
1629807865101,59132,329112,337512
1629807865111,59157,329114,337480
1629807865121,59148,329022,337497
1629807865131,59127,328983,337443
1629807865141,59081,328837,337419
1629807865151,59046,328799,337404
1629807865161,59008,328740,337408
1629807865171,58948,328683,337348
1629807865181,58882,328567,337297
1629807865191,58817,328506,337286
1629807865201,58751,328479,337221
1629807865211,58694,328357,337215
1629807865221,58638,328327,337136
1629807865231,58578,328265,337120
1629807865241,58522,328190,337038
1629807865251,58471,328154,337003
1629807865261,58430,328135,336964
1629807865271,58372,328083,336924
1629807865281,58326,328004,336873
1629807865291,58277,327956,336795
1629807865301,58231,327911,336793
1629807865311,58182,327885,336734
1629807865321,58145,327835,336656
1629807865331,58108,327770,336653
1629807865341,58081,327774,336595
1629807865351,58039,327726,336567
1629807865361,58011,327713,336584
1629807865371,57984,327726,336567
1629807865381,57953,327693,336523
1629807865391,57931,327683,336494
1629807865401,57902,327618,336466
1629807865411,57872,327614,336471
1629807865421,57834,327600,336451
1629807865431,57804,327546,336398
1629807865441,57773,327490,336372
1629807865451,57734,327508,336344
1629807865461,57705,327440,336290
1629807865471,57662,327484,336265
1629807865481,57628,327376,336153
1629807865491,57591,327317,336101
1629807865501,57557,327229,336068
1629807865511,57514,327172,335963
1629807865521,57488,327140,335877
1629807865531,57464,327125,335860
1629807865541,57441,327124,335833
1629807865551,57423,327060,335776
1629807865561,57413,327092,335757
1629807865571,57413,327124,335792
1629807865581,57400,327129,335772
1629807865591,57396,327150,335768
1629807865601,57384,327149,335812
1629807865611,57390,327132,335790
1629807865621,57388,327183,335805
1629807865631,57386,327230,335811
1629807865641,57385,327222,335788
1629807865651,57398,327243,335803
1629807865661,57406,327238,335792
1629807865671,57405,327245,335818
1629807865681,57410,327232,335812
1629807865691,57417,327271,335823
1629807865701,57432,327270,335801
1629807865711,57439,327327,335863
1629807865721,57442,327301,335821
1629807865731,57459,327340,335853
1629807865741,57458,327359,335846
1629807865751,57474,327365,335843
1629807865761,57485,327365,335844
1629807865771,57503,327410,335859
1629807865781,57504,327407,335831
1629807865791,57526,327433,335891
1629807865801,57536,327467,335877
1629807865811,57547,327439,335867
1629807865821,57568,327482,335853
1629807865831,57588,327554,335911
1629807865841,57612,327556,335908
1629807865851,57621,327576,335950
1629807865861,57640,327627,335941
1629807865871,57648,327638,335928
1629807865881,57671,327663,335944
1629807865891,57692,327627,335986
1629807865901,57719,327697,335958
1629807865911,57731,327685,335942
1629807865921,57760,327723,335992
1629807865931,57792,327764,335991
1629807865941,57808,327759,336040
1629807865951,57817,327814,336064
1629807865961,57848,327822,336118
1629807865971,57873,327895,336125
1629807865981,57901,327901,336207
1629807865991,57925,327966,336252
1629807866001,57952,328055,336242
1629807866011,57970,328032,336263
1629807866021,58003,328085,336301
1629807866031,58028,328090,336318
1629807866041,58050,328162,336360
1629807866051,58090,328131,336332
1629807866061,58099,328144,336380
1629807866071,58113,328123,336364
1629807866081,58097,328015,336313
1629807866091,58083,328008,336334
1629807866101,58047,327854,336270
1629807866111,57992,327760,336228
1629807866121,57933,327704,336192
1629807866131,57868,327618,336147
1629807866141,57791,327517,336133
1629807866151,57727,327410,336108
1629807866161,57651,327370,336111
1629807866171,57563,327292,336009
1629807866181,57490,327199,336026
1629807866191,57402,327135,335993
1629807866201,57338,327075,335944
1629807866211,57262,327073,335925
1629807866221,57209,326988,335883
1629807866231,57135,326997,335874
1629807866241,57068,326906,335873
1629807866251,57022,326856,335859
1629807866261,56956,326879,335853
1629807866271,56898,326828,335848
1629807866281,56828,326818,335845
1629807866291,56784,326825,335819
1629807866301,56754,326801,335840
1629807866311,56705,326786,335784
1629807866321,56679,326785,335810
1629807866331,56648,326753,335814
1629807866341,56620,326751,335752
1629807866351,56579,326726,335767
1629807866361,56558,326696,335770
1629807866371,56535,326644,335779
1629807866381,56497,326658,335747
1629807866391,56467,326635,335756
1629807866401,56443,326612,335721
1629807866411,56402,326592,335700
1629807866421,56380,326630,335664
1629807866431,56339,326574,335656
1629807866441,56303,326581,335663
1629807866451,56281,326530,335663
1629807866461,56248,326483,335656
1629807866471,56235,326494,335626
1629807866481,56205,326497,335657
1629807866491,56183,326504,335661
1629807866501,56168,326486,335617
1629807866511,56159,326498,335618
1629807866521,56141,326478,335636
1629807866531,56133,326497,335600
1629807866541,56140,326509,335628
1629807866551,56123,326530,335638
1629807866561,56116,326449,335625
1629807866571,56113,326497,335585
1629807866581,56128,326516,335621
1629807866591,56119,326533,335587
1629807866601,56122,326522,335609
1629807866611,56117,326557,335608
1629807866621,56124,326512,335588
1629807866631,56130,326507,335605
1629807866641,56142,326533,335605
1629807866651,56155,326593,335609
1629807866661,56171,326619,335610
1629807866671,56176,326542,335597
1629807866681,56182,326614,335617
1629807866691,56193,326600,335605
1629807866701,56216,326618,335601
1629807866711,56234,326676,335600
1629807866721,56238,326684,335644
1629807866731,56257,326639,335560
1629807866741,56286,326666,335564
1629807866751,56296,326665,335612
1629807866761,56302,326716,335631
1629807866771,56323,326665,335568
1629807866781,56337,326736,335570
1629807866791,56354,326709,335591
1629807866801,56361,326740,335567
1629807866811,56385,326733,335537
1629807866821,56405,326792,335547
1629807866831,56419,326762,335555
1629807866841,56432,326722,335556
1629807866851,56442,326774,335563
1629807866861,56472,326771,335534
1629807866871,56502,326798,335537
1629807866881,56506,326790,335523
1629807866891,56529,326856,335553
1629807866901,56550,326862,335549
1629807866911,56578,326897,335544
1629807866921,56595,326915,335558
1629807866931,56616,326898,335546
1629807866941,56630,326898,335537
1629807866951,56634,326856,335537
1629807866961,56622,326798,335498
1629807866971,56605,326751,335495
1629807866981,56568,326652,335492
1629807866991,56513,326593,335470
1629807867001,56449,326502,335453
1629807867011,56379,326414,335403
1629807867021,56309,326307,335392
1629807867031,56220,326263,335343
1629807867041,56130,326133,335316
1629807867051,56043,326113,335310
1629807867061,55960,325980,335235
1629807867071,55871,325972,335224
1629807867081,55798,325888,335149
1629807867091,55718,325839,335157
1629807867101,55649,325779,335136
1629807867111,55576,325769,335103
1629807867121,55504,325721,335090
1629807867131,55449,325722,335079
1629807867141,55390,325614,335046
1629807867151,55343,325650,335058
1629807867161,55290,325597,335010
1629807867171,55241,325592,334988
1629807867181,55200,325524,334960
1629807867191,55162,325517,334988
1629807867201,55149,325550,334975
1629807867211,55116,325499,334974
1629807867221,55090,325470,334954
1629807867231,55072,325479,334947
1629807867241,55039,325450,334967
1629807867251,55015,325402,334922
1629807867261,54994,325447,334906
1629807867271,54961,325402,334905
1629807867281,54939,325391,334866
1629807867291,54906,325370,334864
1629807867301,54885,325359,334836
1629807867311,54856,325334,334862
1629807867321,54822,325334,334855
1629807867331,54815,325334,334827
1629807867341,54789,325303,334827
1629807867351,54771,325305,334821
1629807867361,54750,325277,334801
1629807867371,54736,325266,334822
1629807867381,54731,325252,334759
1629807867391,54711,325246,334786
1629807867401,54712,325310,334771
1629807867411,54709,325225,334801
1629807867421,54699,325286,334776
1629807867431,54700,325238,334775
1629807867441,54700,325284,334769
1629807867451,54700,325327,334766
1629807867461,54705,325294,334779
1629807867471,54716,325312,334746
1629807867481,54729,325312,334769
1629807867491,54751,325346,334771
1629807867501,54755,325327,334761
1629807867511,54778,325380,334755
1629807867521,54794,325375,334745
1629807867531,54818,325428,334762
1629807867541,54839,325417,334797
1629807867551,54850,325456,334809
1629807867561,54865,325444,334806
1629807867571,54879,325437,334772
1629807867581,54905,325505,334823
1629807867591,54927,325507,334839
1629807867601,54953,325556,334813
1629807867611,54972,325557,334809
1629807867621,54998,325552,334837
1629807867631,55019,325586,334806
1629807867641,55041,325540,334848
1629807867651,55070,325606,334821
1629807867661,55097,325608,334844
1629807867671,55116,325627,334872
1629807867681,55137,325663,334908
1629807867691,55162,325686,334848
1629807867701,55196,325704,334896
1629807867711,55200,325724,334860
1629807867721,55245,325762,334913
1629807867731,55262,325758,334899
1629807867741,55272,325766,334906
1629807867751,55311,325785,334921
1629807867761,55338,325822,334928
1629807867771,55370,325801,334946
1629807867781,55406,325858,334916
1629807867791,55434,325825,334943
1629807867801,55461,325907,334941
1629807867811,55483,325902,334998
1629807867821,55513,325928,334970
1629807867831,55525,325839,334960
1629807867841,55520,325793,334919
1629807867851,55497,325774,334944
1629807867861,55479,325672,334935
1629807867871,55439,325595,334909
1629807867881,55360,325534,334872
1629807867891,55291,325400,334897
1629807867901,55222,325298,334857
1629807867911,55126,325232,334808
1629807867921,55024,325139,334799
1629807867931,54949,325081,334752
1629807867941,54869,325026,334719
1629807867951,54798,325024,334699
1629807867961,54710,324926,334674
1629807867971,54650,324864,334701
1629807867981,54583,324875,334691
1629807867991,54528,324825,334647
1629807868001,54472,324770,334639
1629807868011,54423,324771,334626
1629807868021,54374,324734,334628
1629807868031,54319,324709,334630
1629807868041,54281,324685,334626
1629807868051,54237,324663,334575
1629807868061,54205,324671,334578
1629807868071,54179,324661,334569
1629807868081,54158,324687,334540
1629807868091,54141,324679,334567
1629807868101,54118,324635,334554
1629807868111,54103,324654,334541
1629807868121,54082,324634,334558
1629807868131,54061,324598,334514
1629807868141,54038,324590,334538
1629807868151,54026,324541,334526
1629807868161,53994,324555,334512
1629807868171,53973,324540,334493
1629807868181,53951,324550,334537
1629807868191,53931,324498,334481
1629807868201,53917,324517,334522
1629807868211,53893,324489,334526
1629807868221,53884,324536,334522
1629807868231,53869,324515,334485
1629807868241,53857,324511,334552
1629807868251,53854,324497,334494
1629807868261,53846,324499,334505
1629807868271,53848,324500,334514
1629807868281,53847,324500,334505
1629807868291,53855,324516,334465
1629807868301,53863,324541,334519
1629807868311,53867,324479,334525
1629807868321,53900,324518,334498
1629807868331,53899,324592,334526
1629807868341,53923,324564,334500
1629807868351,53926,324592,334525
1629807868361,53955,324613,334548
1629807868371,53971,324620,334543
1629807868381,53987,324644,334552
1629807868391,54011,324669,334549
1629807868401,54037,324691,334561
1629807868411,54058,324685,334565
1629807868421,54083,324724,334565
1629807868431,54109,324763,334552
1629807868441,54130,324804,334588
1629807868451,54169,324843,334585
1629807868461,54189,324836,334609
1629807868471,54210,324862,334646
1629807868481,54241,324881,334628
1629807868491,54274,324902,334625
1629807868501,54300,324904,334613
1629807868511,54314,324930,334623
1629807868521,54352,324949,334629
1629807868531,54369,324963,334669
1629807868541,54399,324989,334676
1629807868551,54435,325068,334738
1629807868561,54463,325109,334738
1629807868571,54503,325095,334781
1629807868581,54530,325135,334776
1629807868591,54571,325178,334829
1629807868601,54605,325234,334885
1629807868611,54639,325269,334903
1629807868621,54685,325300,334902
1629807868631,54718,325350,334955
1629807868641,54756,325390,334945
1629807868651,54807,325457,335027
1629807868661,54851,325514,335029
1629807868671,54892,325554,335052
1629807868681,54932,325569,335079
1629807868691,54965,325616,335094
1629807868701,55014,325704,335150
1629807868711,55051,325695,335158
1629807868721,55094,325751,335177
1629807868731,55137,325740,335150
1629807868741,55164,325720,335137
1629807868751,55189,325688,335229
1629807868761,55196,325631,335173
1629807868771,55193,325599,335165
1629807868781,55172,325501,335148
1629807868791,55137,325393,335130
1629807868801,55094,325328,335114
1629807868811,55053,325249,335098
1629807868821,54987,325167,335053
1629807868831,54928,325169,335060
1629807868841,54856,325090,335006
1629807868851,54798,324998,335014
1629807868861,54742,324944,334995
1629807868871,54683,324919,334970
1629807868881,54633,324840,334991
1629807868891,54586,324886,334917
1629807868901,54555,324829,334942
1629807868911,54523,324831,334924
1629807868921,54478,324836,334932
1629807868931,54446,324752,334921
1629807868941,54422,324813,334922
1629807868951,54399,324744,334929
1629807868961,54381,324768,334912
1629807868971,54367,324742,334939
1629807868981,54372,324705,334891
1629807868991,54351,324758,334930
1629807869001,54353,324757,334907
1629807869011,54349,324772,334947
1629807869021,54336,324758,334899
1629807869031,54332,324730,334891
1629807869041,54325,324732,334855
1629807869051,54303,324702,334900
1629807869061,54292,324700,334856
1629807869071,54285,324684,334883
1629807869081,54275,324668,334892
1629807869091,54257,324635,334870
1629807869101,54258,324659,334909
1629807869111,54251,324625,334867
1629807869121,54234,324607,334863
1629807869131,54241,324607,334840
1629807869141,54238,324625,334859
1629807869151,54232,324646,334863
1629807869161,54242,324659,334880
1629807869171,54247,324650,334873
1629807869181,54265,324661,334881
1629807869191,54266,324682,334865
1629807869201,54267,324639,334855
1629807869211,54281,324716,334875
1629807869221,54305,324733,334876
1629807869231,54317,324687,334867
1629807869241,54338,324752,334871
1629807869251,54367,324729,334878
1629807869261,54387,324764,334924
1629807869271,54400,324839,334899
1629807869281,54429,324883,334878
1629807869291,54463,324834,334915
1629807869301,54479,324850,334883
1629807869311,54494,324846,334906
1629807869321,54536,324850,334943
1629807869331,54563,324889,334966
1629807869341,54580,324948,334970
1629807869351,54599,324940,334951
1629807869361,54633,324953,334972
1629807869371,54665,325015,335010
1629807869381,54702,325010,334980
1629807869391,54729,325013,335023
1629807869401,54749,325065,335040
1629807869411,54784,325088,335026
1629807869421,54815,325119,335017
1629807869431,54835,325166,335046
1629807869441,54855,325172,335040
1629807869451,54894,325199,335068
1629807869461,54923,325223,335056
1629807869471,54963,325208,335094
1629807869481,54980,325254,335119
1629807869491,55014,325270,335089
1629807869501,55052,325324,335128
1629807869511,55084,325361,335118
1629807869521,55101,325349,335154
1629807869531,55137,325362,335153
1629807869541,55169,325412,335153
1629807869551,55204,325401,335164
1629807869561,55235,325470,335183
1629807869571,55275,325474,335209
1629807869581,55302,325490,335215
1629807869591,55336,325537,335238
1629807869601,55374,325566,335237
1629807869611,55422,325631,335277
1629807869621,55455,325600,335230
1629807869631,55487,325608,335300
1629807869641,55528,325678,335286
1629807869651,55561,325662,335297
1629807869661,55571,325657,335324
1629807869671,55578,325548,335276
1629807869681,55580,325498,335218
1629807869691,55561,325420,335267
1629807869701,55536,325415,335251
1629807869711,55503,325357,335238
1629807869721,55459,325286,335213
1629807869731,55410,325201,335242
1629807869741,55353,325190,335250
1629807869751,55298,325129,335209
1629807869761,55255,325068,335194
1629807869771,55227,325092,335213
1629807869781,55190,325052,335209
1629807869791,55173,325055,335205
1629807869801,55128,325046,335199
1629807869811,55116,325041,335193
1629807869821,55084,325091,335218
1629807869831,55065,325041,335193
1629807869841,55045,325079,335159
1629807869851,55032,324992,335180
1629807869861,55019,325038,335212
1629807869871,55019,325043,335226
1629807869881,55008,325018,335181
1629807869891,55022,325070,335217
1629807869901,55020,325102,335230
1629807869911,55015,325077,335267
1629807869921,55026,325091,335222
1629807869931,55024,325147,335235
1629807869941,55031,325082,335222
1629807869951,55037,325113,335223
1629807869961,55023,325119,335218
1629807869971,55029,325109,335224
1629807869981,55023,325077,335230
1629807869991,55013,325092,335240
1629807870001,55008,325080,335249
1629807870011,54998,325114,335206
1629807870021,55005,325092,335204
1629807870031,54993,325076,335216
1629807870041,54995,325104,335206
1629807870051,54994,325044,335250
1629807870061,54994,325138,335217
1629807870071,55003,325118,335221
1629807870081,55006,325096,335250
1629807870091,55024,325109,335214
1629807870101,55030,325124,335207
1629807870111,55049,325136,335209
1629807870121,55071,325138,335255
1629807870131,55074,325166,335190
1629807870141,55090,325206,335211
1629807870151,55102,325213,335256
1629807870161,55122,325203,335249
1629807870171,55145,325231,335249
1629807870181,55166,325246,335246
1629807870191,55187,325244,335262
1629807870201,55205,325311,335269
1629807870211,55236,325345,335231
1629807870221,55255,325323,335276
1629807870231,55280,325354,335306
1629807870241,55312,325345,335272
1629807870251,55333,325388,335262
1629807870261,55369,325431,335277
1629807870271,55388,325423,335267
1629807870281,55420,325442,335310
1629807870291,55455,325412,335311
1629807870301,55479,325480,335338
1629807870311,55505,325534,335323
1629807870321,55531,325517,335360
1629807870331,55552,325597,335337
1629807870341,55578,325598,335337
1629807870351,55603,325586,335339
1629807870361,55639,325672,335381
1629807870371,55668,325617,335358
1629807870381,55692,325669,335398
1629807870391,55724,325686,335389
1629807870401,55756,325741,335436
1629807870411,55779,325731,335418
1629807870421,55813,325767,335449
1629807870431,55842,325806,335477
1629807870441,55877,325815,335417
1629807870451,55902,325842,335495
1629807870461,55938,325901,335484
1629807870471,55956,325935,335512
1629807870481,55996,325919,335491
1629807870491,56019,325945,335526
1629807870501,56065,325949,335488
1629807870511,56094,325987,335536
1629807870521,56127,326010,335559
1629807870531,56162,326029,335579
1629807870541,56190,326049,335565
1629807870551,56213,326014,335579
1629807870561,56228,325960,335589
1629807870571,56223,325881,335563
1629807870581,56205,325846,335538
1629807870591,56172,325848,335531
1629807870601,56148,325741,335488
1629807870611,56091,325626,335478
1629807870621,56046,325621,335464
1629807870631,55990,325530,335457
1629807870641,55933,325515,335497
1629807870651,55891,325542,335462
1629807870661,55835,325451,335453
1629807870671,55811,325439,335446
1629807870681,55761,325439,335464
1629807870691,55727,325419,335447
1629807870701,55698,325421,335425
1629807870711,55673,325388,335428
1629807870721,55639,325418,335415
1629807870731,55618,325367,335407
1629807870741,55583,325385,335465
1629807870751,55567,325407,335428
1629807870761,55559,325406,335435
1629807870771,55539,325392,335390
1629807870781,55533,325386,335425
1629807870791,55537,325386,335450
1629807870801,55524,325409,335414
1629807870811,55513,325423,335488
1629807870821,55511,325459,335440
1629807870831,55501,325404,335426
1629807870841,55502,325394,335456
1629807870851,55489,325332,335399
1629807870861,55472,325396,335410
1629807870871,55465,325392,335403
1629807870881,55447,325342,335414
1629807870891,55438,325375,335402
1629807870901,55424,325390,335420
1629807870911,55431,325342,335378
1629807870921,55403,325338,335346
1629807870931,55392,325319,335362
1629807870941,55399,325348,335363
1629807870951,55403,325336,335372
1629807870961,55405,325428,335360
1629807870971,55399,325361,335370
1629807870981,55401,325372,335341
1629807870991,55405,325393,335344
1629807871001,55420,325409,335368
1629807871011,55430,325442,335353
1629807871021,55433,325416,335331
1629807871031,55445,325478,335379
1629807871041,55459,325435,335333
1629807871051,55468,325457,335365
1629807871061,55501,325491,335372
1629807871071,55516,325490,335337
1629807871081,55529,325508,335379
1629807871091,55541,325501,335388
1629807871101,55566,325553,335360
1629807871111,55591,325577,335396
1629807871121,55605,325589,335336
1629807871131,55622,325549,335390
1629807871141,55637,325645,335414
1629807871151,55653,325647,335386
1629807871161,55684,325622,335397
1629807871171,55702,325655,335386
1629807871181,55735,325734,335407
1629807871191,55760,325732,335429
1629807871201,55780,325768,335443
1629807871211,55805,325753,335435
1629807871221,55829,325779,335426
1629807871231,55853,325816,335444
1629807871241,55868,325815,335445
1629807871251,55886,325816,335429
1629807871261,55920,325821,335465
1629807871271,55938,325843,335438
1629807871281,55974,325889,335454
1629807871291,55990,325850,335461
1629807871301,56013,325939,335463
1629807871311,56046,325961,335486
1629807871321,56068,325948,335496
1629807871331,56098,325973,335470
1629807871341,56122,325996,335508
1629807871351,56141,326067,335525
1629807871361,56166,326047,335495
1629807871371,56193,326087,335502
1629807871381,56232,326098,335494
1629807871391,56258,326105,335519
1629807871401,56301,326157,335541
1629807871411,56315,326147,335547
1629807871421,56343,326169,335580
1629807871431,56376,326195,335561
1629807871441,56384,326101,335583
1629807871451,56389,326101,335577
1629807871461,56372,326032,335559
1629807871471,56362,325979,335565
1629807871481,56313,325867,335528
1629807871491,56270,325824,335528
1629807871501,56220,325763,335480
1629807871511,56144,325678,335447
1629807871521,56069,325644,335449
1629807871531,55991,325551,335421
1629807871541,55939,325538,335392
1629807871551,55857,325519,335412
1629807871561,55809,325445,335374
1629807871571,55746,325446,335360
1629807871581,55700,325361,335311
1629807871591,55648,325408,335304
1629807871601,55591,325340,335318
1629807871611,55537,325314,335288
1629807871621,55477,325299,335273
1629807871631,55439,325283,335276
1629807871641,55396,325225,335277
1629807871651,55342,325222,335260
1629807871661,55291,325207,335243
1629807871671,55261,325211,335220
1629807871681,55228,325208,335220
1629807871691,55208,325204,335226
1629807871701,55179,325193,335246
1629807871711,55163,325223,335235
1629807871721,55135,325130,335204
1629807871731,55110,325231,335255
1629807871741,55092,325165,335201
1629807871751,55072,325121,335195
1629807871761,55028,325127,335137
1629807871771,54992,325084,335146
1629807871781,54967,325105,335157
1629807871791,54944,325061,335121
1629807871801,54914,325059,335116
1629807871811,54898,325029,335102
1629807871821,54870,324986,335114
1629807871831,54849,325043,335077
1629807871841,54820,324993,335099
1629807871851,54814,325010,335085
1629807871861,54806,325010,335071
1629807871871,54791,325008,335114
1629807871881,54795,325039,335056
1629807871891,54782,325036,335073
1629807871901,54786,325063,335109
1629807871911,54773,325066,335070
1629807871921,54787,325083,335036
1629807871931,54788,325046,335079
1629807871941,54784,325128,335076
1629807871951,54799,325100,335111
1629807871961,54819,325107,335049
1629807871971,54830,325162,335070
1629807871981,54846,325182,335096
1629807871991,54859,325193,335058
1629807872001,54873,325223,335075
1629807872011,54896,325239,335095
1629807872021,54904,325271,335081
1629807872031,54928,325238,335061
1629807872041,54957,325279,335104
1629807872051,54966,325303,335069
1629807872061,54991,325321,335087
1629807872071,55001,325305,335129
1629807872081,55025,325326,335086
1629807872091,55044,325391,335119
1629807872101,55068,325406,335117
1629807872111,55088,325423,335123
1629807872121,55110,325403,335099
1629807872131,55144,325486,335135
1629807872141,55168,325496,335128
1629807872151,55186,325520,335137
1629807872161,55219,325544,335135
1629807872171,55232,325546,335148
1629807872181,55272,325567,335167
1629807872191,55302,325587,335180
1629807872201,55328,325615,335235
1629807872211,55359,325646,335193
1629807872221,55375,325656,335246
1629807872231,55418,325657,335224
1629807872241,55438,325708,335245
1629807872251,55469,325739,335260
1629807872261,55495,325809,335259
1629807872271,55518,325795,335265
1629807872281,55562,325791,335284
1629807872291,55581,325862,335324
1629807872301,55618,325869,335297
1629807872311,55647,325913,335335
1629807872321,55688,325938,335341
1629807872331,55707,325991,335378
1629807872341,55746,325947,335329
1629807872351,55776,326038,335376
1629807872361,55823,326022,335391
1629807872371,55851,326109,335385
1629807872381,55879,326076,335339
1629807872391,55919,326152,335431
1629807872401,55951,326162,335412
1629807872411,55982,326179,335437
1629807872421,55996,326153,335434
1629807872431,56006,326096,335443
1629807872441,56000,326058,335435
1629807872451,55989,325956,335456
1629807872461,55955,325908,335439
1629807872471,55915,325832,335384
1629807872481,55854,325779,335367
1629807872491,55780,325657,335339
1629807872501,55705,325599,335353
1629807872511,55628,325526,335307
1629807872521,55552,325502,335291
1629807872531,55475,325437,335251
1629807872541,55401,325373,335240
1629807872551,55322,325322,335264
1629807872561,55253,325282,335242
1629807872571,55188,325273,335218
1629807872581,55121,325202,335223
1629807872591,55070,325152,335165
1629807872601,55004,325200,335200
1629807872611,54949,325134,335143
1629807872621,54889,325085,335152
1629807872631,54837,325098,335114
1629807872641,54782,325090,335111
1629807872651,54724,325070,335088
1629807872661,54693,325029,335092
1629807872671,54663,324998,335110
1629807872681,54628,325023,335111
1629807872691,54604,324969,335101
1629807872701,54567,324998,335078
1629807872711,54539,324953,335046
1629807872721,54512,324929,335040
1629807872731,54471,324921,335047
1629807872741,54440,324913,335013
1629807872751,54412,324885,335016
1629807872761,54378,324921,335000
1629807872771,54344,324844,335021
1629807872781,54312,324836,335043
1629807872791,54290,324850,335027
1629807872801,54251,324819,335003
1629807872811,54227,324804,334989
1629807872821,54207,324785,334975
1629807872831,54184,324780,335014
1629807872841,54168,324777,334953
1629807872851,54154,324749,334989
1629807872861,54138,324780,334979
1629807872871,54134,324783,334930
1629807872881,54135,324831,334965
1629807872891,54116,324810,334978
1629807872901,54118,324804,334966
1629807872911,54111,324882,334957
1629807872921,54121,324887,334935
1629807872931,54134,324860,334950
1629807872941,54146,324896,334967
1629807872951,54156,324923,334969
1629807872961,54168,324921,334942
1629807872971,54179,324945,334982
1629807872981,54198,324947,334965
1629807872991,54219,324947,334979
1629807873001,54228,324981,334986
1629807873011,54252,325017,334983
1629807873021,54267,324998,334979
1629807873031,54289,325077,334981
1629807873041,54314,325079,335020
1629807873051,54334,325029,334998
1629807873061,54359,325080,334973
1629807873071,54380,325118,335072
1629807873081,54407,325155,335032
1629807873091,54420,325173,334999
1629807873101,54452,325162,335012
1629807873111,54474,325184,335046
1629807873121,54502,325229,335027
1629807873131,54532,325220,335055
1629807873141,54554,325263,335050
1629807873151,54591,325282,335082
1629807873161,54604,325311,335116
1629807873171,54653,325326,335100
1629807873181,54675,325384,335151
1629807873191,54709,325368,335134
1629807873201,54737,325424,335132
1629807873211,54774,325416,335167
1629807873221,54794,325448,335145
1629807873231,54824,325487,335156
1629807873241,54857,325449,335170
1629807873251,54895,325541,335169
1629807873261,54924,325567,335204
1629807873271,54959,325570,335199
1629807873281,54994,325606,335221
1629807873291,55020,325596,335242
1629807873301,55063,325700,335210
1629807873311,55102,325697,335252
1629807873321,55147,325741,335242
1629807873331,55175,325753,335262
1629807873341,55222,325803,335287
1629807873351,55246,325835,335304
1629807873361,55284,325884,335293
1629807873371,55301,325884,335343
1629807873381,55351,325934,335360
1629807873391,55386,325928,335386
1629807873401,55413,325943,335359
1629807873411,55454,326005,335396
1629807873421,55493,326066,335359
1629807873431,55530,326040,335459
1629807873441,55571,326067,335397
1629807873451,55610,326100,335460
1629807873461,55639,326143,335430
1629807873471,55688,326167,335452
1629807873481,55724,326163,335453
1629807873491,55747,326155,335496
1629807873501,55761,326163,335488
1629807873511,55773,326071,335458
1629807873521,55752,325977,335455
1629807873531,55711,325929,335460
1629807873541,55691,325847,335431
1629807873551,55630,325717,335404
1629807873561,55580,325707,335378
1629807873571,55515,325626,335413
1629807873581,55441,325576,335325
1629807873591,55383,325457,335306
1629807873601,55303,325402,335320
1629807873611,55227,325403,335325
1629807873621,55170,325347,335249
1629807873631,55123,325296,335259
1629807873641,55066,325246,335229
1629807873651,55013,325276,335268
1629807873661,54955,325201,335225
1629807873671,54914,325144,335258
1629807873681,54855,325179,335178
1629807873691,54826,325149,335191
1629807873701,54778,325112,335163
1629807873711,54739,325111,335167
1629807873721,54704,325058,335189
1629807873731,54682,325074,335142
1629807873741,54664,325080,335154
1629807873751,54630,325097,335142
1629807873761,54615,325073,335122
1629807873771,54603,325034,335109
1629807873781,54586,325055,335140
1629807873791,54576,325004,335132
1629807873801,54546,325081,335070
1629807873811,54555,325048,335138
1629807873821,54517,325019,335098
1629807873831,54505,325008,335108
1629807873841,54471,325000,335079
1629807873851,54466,324946,335107
1629807873861,54446,324962,335053
1629807873871,54429,324967,335083
1629807873881,54403,324911,335068
1629807873891,54390,324893,335083
1629807873901,54389,324951,335039
1629807873911,54374,324923,335050
1629807873921,54362,324931,335046
1629807873931,54359,324912,335013
1629807873941,54358,324948,335030
1629807873951,54356,324875,335010
1629807873961,54371,324920,334992
1629807873971,54383,324899,335025
1629807873981,54391,324990,335019
1629807873991,54390,324969,335040
1629807874001,54412,324951,335003
1629807874011,54427,324993,335042
1629807874021,54449,325053,335032
1629807874031,54458,325055,335011
1629807874041,54468,325071,335048
1629807874051,54497,325086,335052
1629807874061,54515,325073,335050
1629807874071,54535,325130,335057
1629807874081,54555,325177,335061
1629807874091,54577,325128,335077
1629807874101,54606,325202,335062
1629807874111,54627,325203,335079
1629807874121,54664,325217,335062
1629807874131,54695,325208,335096
1629807874141,54707,325187,335091
1629807874151,54747,325272,335093
1629807874161,54770,325305,335080
1629807874171,54800,325254,335086
1629807874181,54817,325283,335079
1629807874191,54858,325331,335082
1629807874201,54880,325376,335113
1629807874211,54913,325334,335086
1629807874221,54941,325376,335079
1629807874231,54952,325385,335088
1629807874241,54986,325433,335086
1629807874251,55015,325417,335124
1629807874261,55047,325463,335115
1629807874271,55070,325462,335109
1629807874281,55112,325468,335108
1629807874291,55129,325494,335134
1629807874301,55168,325488,335149
1629807874311,55198,325538,335129
1629807874321,55234,325532,335150
1629807874331,55254,325605,335171
1629807874341,55291,325631,335190
1629807874351,55326,325649,335180
1629807874361,55367,325662,335208
1629807874371,55390,325707,335191
1629807874381,55436,325699,335216
1629807874391,55466,325745,335188
1629807874401,55495,325771,335219
1629807874411,55530,325823,335239
1629807874421,55558,325839,335232
1629807874431,55599,325904,335280
1629807874441,55629,325898,335260
1629807874451,55679,325921,335278
1629807874461,55717,325948,335296
1629807874471,55757,326007,335324
1629807874481,55785,326033,335322
1629807874491,55811,326017,335340
1629807874501,55850,326057,335347
1629807874511,55875,326079,335308
1629807874521,55914,326126,335353
1629807874531,55957,326150,335362
1629807874541,55988,326156,335385
1629807874551,56018,326200,335384
1629807874561,56034,326175,335395
1629807874571,56058,326132,335382
1629807874581,56063,326099,335383
1629807874591,56049,326041,335397
1629807874601,56026,325967,335347
1629807874611,56006,325841,335355
1629807874621,55958,325777,335343
1629807874631,55919,325734,335380
1629807874641,55862,325704,335314
1629807874651,55800,325631,335298
1629807874661,55748,325546,335306
1629807874671,55696,325505,335302
1629807874681,55648,325479,335282
1629807874691,55589,325403,335291
1629807874701,55546,325409,335252
1629807874711,55505,325427,335250
1629807874721,55456,325362,335213
1629807874731,55427,325388,335236
1629807874741,55401,325340,335199
1629807874751,55363,325327,335186
1629807874761,55334,325310,335175
1629807874771,55315,325318,335169
1629807874781,55295,325302,335198
1629807874791,55280,325292,335191
1629807874801,55269,325303,335194
1629807874811,55255,325324,335243
1629807874821,55243,325299,335197
1629807874831,55243,325316,335228
1629807874841,55233,325267,335195
1629807874851,55222,325308,335206
1629807874861,55211,325325,335180
1629807874871,55220,325308,335179
1629807874881,55200,325265,335182
1629807874891,55184,325257,335186
1629807874901,55169,325235,335194
1629807874911,55157,325279,335192
1629807874921,55148,325247,335167
1629807874931,55147,325223,335176
1629807874941,55122,325212,335184
1629807874951,55127,325241,335162
1629807874961,55115,325266,335189
1629807874971,55115,325229,335176
1629807874981,55121,325279,335170
1629807874991,55116,325256,335178
1629807875001,55109,325256,335151
1629807875011,55110,325307,335167
1629807875021,55117,325300,335164
1629807875031,55128,325294,335199
1629807875041,55134,325314,335177
1629807875051,55160,325327,335174
1629807875061,55169,325335,335169
1629807875071,55190,325362,335210
1629807875081,55198,325373,335185
1629807875091,55217,325436,335186
1629807875101,55231,325435,335226
1629807875111,55268,325442,335200
1629807875121,55291,325501,335222
1629807875131,55308,325503,335206
1629807875141,55340,325492,335265
1629807875151,55351,325551,335295
1629807875161,55363,325618,335233
1629807875171,55397,325618,335257
1629807875181,55417,325630,335266
1629807875191,55443,325660,335262
1629807875201,55463,325630,335280
1629807875211,55493,325683,335300
1629807875221,55514,325676,335327
1629807875231,55544,325718,335311
1629807875241,55565,325744,335332
1629807875251,55599,325816,335337
1629807875261,55617,325778,335336
1629807875271,55657,325781,335346
1629807875281,55675,325822,335358
1629807875291,55700,325866,335350
1629807875301,55725,325893,335345
1629807875311,55767,325915,335371
1629807875321,55779,325923,335386
1629807875331,55803,325897,335397
1629807875341,55833,325996,335408
1629807875351,55866,325917,335407
1629807875361,55887,325980,335396
1629807875371,55925,326016,335414
1629807875381,55961,326077,335427
1629807875391,55976,326070,335430
1629807875401,56009,326096,335438
1629807875411,56041,326113,335466
1629807875421,56068,326077,335416
1629807875431,56112,326178,335462
1629807875441,56147,326198,335470
1629807875451,56173,326220,335458
1629807875461,56201,326255,335494
1629807875471,56228,326256,335499
1629807875481,56262,326308,335523
1629807875491,56302,326347,335501
1629807875501,56329,326345,335550
1629807875511,56363,326376,335510
1629807875521,56397,326407,335528
1629807875531,56431,326477,335593
1629807875541,56469,326509,335540
1629807875551,56498,326454,335590
1629807875561,56537,326473,335624
1629807875571,56561,326501,335586
1629807875581,56577,326464,335611
1629807875591,56597,326418,335594
1629807875601,56597,326388,335596
1629807875611,56585,326273,335583
1629807875621,56549,326265,335596
1629807875631,56520,326159,335587
1629807875641,56479,326128,335554
1629807875651,56442,326047,335511
1629807875661,56404,326005,335532
1629807875671,56355,325997,335484
1629807875681,56320,325939,335485
1629807875691,56283,325905,335477
1629807875701,56258,325899,335470
1629807875711,56223,325806,335502
1629807875721,56195,325821,335441
1629807875731,56165,325856,335452
1629807875741,56141,325818,335439
1629807875751,56136,325786,335422
1629807875761,56124,325817,335451
1629807875771,56103,325849,335438
1629807875781,56091,325808,335406
1629807875791,56080,325891,335414
1629807875801,56077,325843,335433
1629807875811,56081,325850,335420
1629807875821,56073,325844,335458
1629807875831,56072,325848,335423
1629807875841,56079,325841,335426
1629807875851,56083,325822,335441
1629807875861,56073,325826,335431
1629807875871,56080,325837,335401
1629807875881,56072,325836,335429
1629807875891,56067,325881,335412
1629807875901,56066,325820,335392
1629807875911,56061,325822,335391
1629807875921,56053,325807,335380
1629807875931,56042,325813,335398
1629807875941,56042,325784,335388
1629807875951,56025,325774,335414
1629807875961,56024,325757,335406
1629807875971,56014,325752,335352
1629807875981,56013,325784,335392
1629807875991,56021,325784,335365
1629807876001,56014,325751,335332
1629807876011,56012,325758,335351
1629807876021,56021,325841,335320
1629807876031,56020,325797,335348
1629807876041,56036,325867,335378
1629807876051,56045,325820,335357
1629807876061,56048,325820,335350
1629807876071,56080,325837,335346
1629807876081,56078,325882,335351
1629807876091,56092,325885,335332
1629807876101,56104,325874,335364
1629807876111,56123,325882,335376
1629807876121,56133,325925,335377
1629807876131,56154,325933,335365
1629807876141,56167,325945,335415
1629807876151,56180,325927,335339
1629807876161,56204,326006,335369
1629807876171,56223,326021,335376
1629807876181,56239,325991,335384
1629807876191,56265,326071,335400
1629807876201,56279,326030,335348
1629807876211,56299,326075,335375
1629807876221,56319,326111,335412
1629807876231,56334,326154,335410
1629807876241,56371,326120,335372
1629807876251,56388,326135,335401
1629807876261,56394,326151,335425
1629807876271,56419,326181,335395
1629807876281,56450,326171,335436
1629807876291,56471,326204,335415
1629807876301,56488,326274,335432
1629807876311,56518,326233,335403
1629807876321,56532,326276,335406
1629807876331,56552,326278,335426
1629807876341,56576,326290,335442
1629807876351,56601,326300,335441
1629807876361,56624,326390,335442
1629807876371,56657,326347,335477
1629807876381,56678,326419,335431
1629807876391,56704,326372,335495
1629807876401,56728,326412,335458
1629807876411,56748,326412,335467
1629807876421,56787,326456,335474
1629807876431,56807,326493,335495
1629807876441,56833,326499,335492
1629807876451,56861,326546,335494
1629807876461,56887,326558,335495
1629807876471,56905,326562,335504
1629807876481,56931,326591,335545
1629807876491,56967,326585,335537
1629807876501,56991,326603,335522
1629807876511,56997,326585,335551
1629807876521,57005,326558,335545
1629807876531,57001,326443,335534
1629807876541,56981,326405,335504
1629807876551,56952,326370,335486
1629807876561,56925,326269,335478
1629807876571,56893,326235,335432
1629807876581,56834,326142,335455
1629807876591,56808,326078,335432
1629807876601,56759,326041,335454
1629807876611,56699,326038,335399
1629807876621,56655,326003,335369
1629807876631,56623,325996,335385
1629807876641,56574,325948,335369
1629807876651,56544,325915,335356
1629807876661,56517,325897,335337
1629807876671,56492,325862,335367
1629807876681,56466,325876,335343
1629807876691,56440,325895,335327
1629807876701,56421,325932,335324
1629807876711,56398,325928,335319
1629807876721,56387,325933,335305
1629807876731,56373,325903,335328
1629807876741,56365,325912,335297
1629807876751,56363,325958,335302
1629807876761,56362,325908,335350
1629807876771,56354,325879,335293
1629807876781,56345,325908,335293
1629807876791,56340,325923,335317
1629807876801,56336,325928,335294
1629807876811,56328,325900,335300
1629807876821,56305,325860,335298
1629807876831,56302,325895,335265
1629807876841,56286,325855,335278
1629807876851,56275,325876,335229
1629807876861,56258,325842,335215
1629807876871,56246,325826,335227
1629807876881,56223,325823,335269
1629807876891,56216,325812,335237
1629807876901,56207,325801,335216
1629807876911,56206,325786,335238
1629807876921,56192,325806,335193
1629807876931,56183,325806,335226
1629807876941,56180,325814,335199
1629807876951,56168,325782,335212
1629807876961,56191,325844,335215
1629807876971,56183,325833,335236
1629807876981,56188,325818,335193
1629807876991,56192,325822,335187
1629807877001,56202,325875,335181
1629807877011,56205,325845,335168
1629807877021,56221,325864,335180
1629807877031,56216,325851,335144
1629807877041,56238,325855,335179
1629807877051,56252,325917,335159
1629807877061,56255,325857,335167
1629807877071,56273,325884,335139
1629807877081,56286,325930,335165
1629807877091,56297,325977,335183
1629807877101,56311,325935,335176
1629807877111,56332,325973,335145
1629807877121,56352,325972,335141
1629807877131,56359,326009,335158
1629807877141,56378,326023,335152
1629807877151,56398,326008,335140
1629807877161,56415,326035,335172
1629807877171,56430,326048,335162
1629807877181,56445,326058,335167
1629807877191,56466,326024,335135
1629807877201,56482,326101,335173
1629807877211,56483,326043,335162
1629807877221,56505,326127,335179
1629807877231,56532,326118,335155
1629807877241,56549,326138,335170
1629807877251,56547,326153,335185
1629807877261,56579,326171,335213
1629807877271,56599,326182,335179
1629807877281,56603,326194,335181
1629807877291,56621,326185,335171
1629807877301,56650,326221,335223
1629807877311,56668,326225,335217
1629807877321,56680,326273,335210
1629807877331,56696,326295,335177
1629807877341,56724,326272,335244
1629807877351,56744,326299,335236
1629807877361,56777,326304,335210
1629807877371,56801,326350,335237
1629807877381,56823,326374,335248
1629807877391,56851,326384,335236
1629807877401,56854,326381,335236
1629807877411,56858,326340,335243
1629807877421,56865,326316,335230
1629807877431,56859,326249,335206
1629807877441,56806,326122,335219
1629807877451,56766,326082,335158
1629807877461,56707,325986,335162
1629807877471,56648,325930,335113
1629807877481,56580,325836,335106
1629807877491,56507,325724,335094
1629807877501,56419,325649,335051
1629807877511,56341,325585,335003
1629807877521,56261,325555,334988
1629807877531,56185,325531,334978
1629807877541,56129,325492,334941
1629807877551,56059,325442,334954
1629807877561,55992,325464,334948
1629807877571,55944,325400,334886
1629807877581,55868,325335,334900
1629807877591,55831,325400,334869
1629807877601,55781,325341,334857
1629807877611,55725,325292,334806
1629807877621,55693,325237,334828
1629807877631,55648,325267,334832
1629807877641,55609,325231,334770
1629807877651,55585,325186,334792
1629807877661,55549,325211,334753
1629807877671,55527,325212,334755
1629807877681,55491,325141,334746
1629807877691,55479,325164,334731
1629807877701,55446,325197,334710
1629807877711,55410,325094,334677
1629807877721,55385,325106,334681
1629807877731,55353,325085,334671
1629807877741,55310,325041,334596
1629807877751,55283,325011,334614
1629807877761,55241,324959,334575
1629807877771,55208,324923,334560
1629807877781,55169,324882,334544
1629807877791,55145,324921,334498
1629807877801,55113,324871,334483
1629807877811,55077,324801,334432
1629807877821,55041,324810,334441
1629807877831,55016,324815,334414
1629807877841,54999,324788,334407
1629807877851,54987,324847,334448
1629807877861,54969,324796,334410
1629807877871,54953,324772,334395
1629807877881,54941,324809,334397
1629807877891,54938,324762,334375
1629807877901,54930,324804,334400
1629807877911,54930,324777,334409
1629807877921,54917,324770,334362
1629807877931,54907,324827,334379
1629807877941,54913,324803,334323
1629807877951,54920,324812,334397
1629807877961,54925,324859,334353
1629807877971,54931,324897,334392
1629807877981,54934,324833,334362
1629807877991,54956,324842,334351
1629807878001,54954,324876,334360
1629807878011,54974,324885,334375
1629807878021,54979,324877,334328
1629807878031,54990,324904,334343
1629807878041,54993,324918,334354
1629807878051,55020,324927,334347
1629807878061,55027,324899,334298
1629807878071,55036,324963,334343
1629807878081,55048,324948,334361
1629807878091,55062,324963,334363
1629807878101,55073,324951,334392
1629807878111,55086,325008,334357
1629807878121,55111,324988,334367
1629807878131,55126,324993,334373
1629807878141,55141,324962,334363
1629807878151,55151,325015,334334
1629807878161,55166,325042,334338
1629807878171,55189,325072,334362
1629807878181,55209,325075,334400
1629807878191,55211,325070,334342
1629807878201,55238,325098,334328
1629807878211,55253,325060,334375
1629807878221,55271,325120,334321
1629807878231,55288,325115,334360
1629807878241,55313,325130,334351
1629807878251,55324,325114,334345
1629807878261,55336,325151,334390
1629807878271,55372,325193,334388
1629807878281,55381,325240,334371
1629807878291,55412,325167,334361
1629807878301,55443,325245,334386
1629807878311,55466,325276,334387
1629807878321,55489,325267,334394
1629807878331,55505,325226,334456
1629807878341,55498,325162,334399
1629807878351,55492,325102,334367
1629807878361,55471,325057,334396
1629807878371,55427,324965,334341
1629807878381,55363,324899,334339
1629807878391,55285,324782,334311
1629807878401,55193,324727,334267
1629807878411,55086,324605,334228
1629807878421,54980,324497,334188
1629807878431,54880,324470,334196
1629807878441,54785,324416,334165
1629807878451,54680,324321,334141
1629807878461,54599,324332,334145
1629807878471,54518,324290,334089
1629807878481,54445,324233,334091
1629807878491,54363,324146,334065
1629807878501,54295,324156,334011
1629807878511,54231,324071,333999
1629807878521,54153,324054,333981
1629807878531,54099,324005,333993
1629807878541,54031,323961,333992
1629807878551,53976,323902,333968
1629807878561,53909,323900,333951
1629807878571,53855,323880,333936
1629807878581,53811,323887,333919
1629807878591,53774,323882,333869
1629807878601,53740,323834,333874
1629807878611,53698,323828,333891
1629807878621,53678,323817,333882
1629807878631,53652,323807,333886
1629807878641,53608,323735,333851
1629807878651,53588,323749,333831
1629807878661,53549,323719,333820
1629807878671,53510,323698,333807
1629807878681,53469,323672,333794
1629807878691,53442,323636,333805
1629807878701,53413,323665,333823
1629807878711,53369,323628,333782
1629807878721,53346,323612,333786
1629807878731,53320,323596,333760
1629807878741,53296,323580,333766
1629807878751,53279,323596,333794
1629807878761,53266,323606,333814
1629807878771,53248,323573,333805
1629807878781,53238,323602,333748
1629807878791,53231,323634,333780
1629807878801,53234,323622,333790
1629807878811,53223,323670,333782
1629807878821,53226,323647,333810
1629807878831,53230,323636,333808
1629807878841,53250,323699,333836
1629807878851,53261,323683,333806
1629807878861,53277,323678,333820
1629807878871,53288,323730,333839
1629807878881,53298,323751,333869
1629807878891,53329,323742,333850
1629807878901,53339,323794,333898
1629807878911,53357,323753,333873
1629807878921,53377,323841,333887
1629807878931,53405,323855,333912
1629807878941,53432,323809,333887
1629807878951,53456,323866,333897
1629807878961,53482,323979,333929
1629807878971,53505,323949,333951
1629807878981,53542,323940,333949
1629807878991,53565,323985,334010
1629807879001,53590,323960,333979
1629807879011,53629,323997,333966
1629807879021,53661,324022,333963
1629807879031,53685,324045,333997
1629807879041,53711,324090,333994
1629807879051,53749,324093,334000
1629807879061,53787,324100,333996
1629807879071,53805,324141,334035
1629807879081,53843,324170,334044
1629807879091,53874,324191,334047
1629807879101,53902,324238,334069
1629807879111,53928,324225,334080
1629807879121,53964,324252,334057
1629807879131,53989,324246,334076
1629807879141,54016,324328,334108
1629807879151,54050,324378,334123
1629807879161,54095,324386,334093
1629807879171,54128,324352,334144
1629807879181,54158,324376,334150
1629807879191,54214,324383,334189
1629807879201,54233,324433,334175
1629807879211,54270,324490,334188
1629807879221,54302,324533,334193
1629807879231,54340,324544,334202
1629807879241,54381,324559,334263
1629807879251,54418,324566,334226
1629807879261,54454,324631,334276
1629807879271,54496,324663,334271
1629807879281,54545,324703,334343
1629807879291,54585,324742,334319
1629807879301,54610,324692,334334
1629807879311,54632,324713,334328
1629807879321,54639,324698,334371
1629807879331,54644,324567,334361
1629807879341,54615,324523,334349
1629807879351,54567,324453,334373
1629807879361,54527,324369,334331
1629807879371,54464,324292,334360
1629807879381,54390,324272,334315
1629807879391,54313,324185,334325
1629807879401,54249,324167,334295
1629807879411,54177,324086,334323
1629807879421,54103,324094,334317
1629807879431,54050,324011,334272
1629807879441,53990,324050,334303
1629807879451,53943,323993,334311
1629807879461,53902,323932,334307
1629807879471,53866,323968,334317
1629807879481,53805,323927,334325
1629807879491,53776,323923,334344
1629807879501,53750,323887,334346
1629807879511,53707,323853,334389
1629807879521,53684,323899,334395
1629807879531,53639,323890,334421
1629807879541,53632,323896,334405
1629807879551,53621,323931,334434
1629807879561,53615,323872,334487
1629807879571,53606,323918,334464
1629807879581,53607,323932,334461
1629807879591,53606,323900,334508
1629807879601,53587,323954,334550
1629807879611,53597,323918,334533
1629807879621,53585,323932,334581
1629807879631,53564,323959,334610
1629807879641,53560,323972,334593
1629807879651,53546,323967,334662
1629807879661,53549,323979,334689
1629807879671,53554,323949,334673
1629807879681,53546,323988,334754
1629807879691,53545,324010,334746
1629807879701,53544,324011,334799
1629807879711,53541,324038,334795
1629807879721,53545,324117,334803
1629807879731,53556,324108,334906
1629807879741,53567,324109,334886
1629807879751,53575,324157,334900
1629807879761,53592,324162,334931
1629807879771,53600,324210,334973
1629807879781,53620,324131,334975
1629807879791,53650,324249,334996
1629807879801,53668,324256,335027
1629807879811,53672,324211,335016
1629807879821,53696,324218,334987
1629807879831,53715,324249,335007
1629807879841,53746,324295,335001
1629807879851,53769,324284,334996
1629807879861,53802,324330,335008
1629807879871,53824,324369,334996
1629807879881,53851,324364,334991
1629807879891,53884,324367,335009
1629807879901,53913,324403,335032
1629807879911,53941,324450,335103
1629807879921,53986,324452,335071
1629807879931,54009,324468,335072
1629807879941,54052,324487,335127
1629807879951,54087,324523,335145
1629807879961,54134,324558,335190
1629807879971,54171,324641,335224
1629807879981,54207,324651,335254
1629807879991,54243,324716,335248
1629807880001,54297,324716,335305
1629807880011,54337,324829,335350
1629807880021,54377,324855,335370
1629807880031,54418,324935,335409
1629807880041,54467,324937,335452
1629807880051,54511,325000,335478
1629807880061,54560,325074,335518
1629807880071,54610,325133,335596
1629807880081,54658,325169,335661
1629807880091,54705,325229,335703
1629807880101,54768,325332,335779
1629807880111,54824,325413,335857
1629807880121,54883,325444,335918
1629807880131,54933,325556,335961
1629807880141,54986,325579,336068
1629807880151,55039,325654,336163
1629807880161,55104,325770,336195
1629807880171,55156,325826,336249
1629807880181,55230,325889,336348
1629807880191,55278,326035,336425
1629807880201,55340,326039,336481
1629807880211,55392,326161,336563
1629807880221,55450,326190,336568
1629807880231,55514,326225,336624
1629807880241,55568,326275,336730
1629807880251,55615,326357,336765
1629807880261,55678,326343,336795
1629807880271,55716,326351,336805
1629807880281,55748,326329,336839
1629807880291,55765,326269,336860
1629807880301,55761,326212,336826
1629807880311,55753,326185,336817
1629807880321,55734,326099,336808
1629807880331,55700,326014,336761
1629807880341,55661,325954,336723
1629807880351,55628,325884,336692
1629807880361,55598,325835,336671
1629807880371,55561,325739,336603
1629807880381,55532,325730,336548
1629807880391,55503,325677,336531
1629807880401,55465,325623,336498
1629807880411,55446,325642,336462
1629807880421,55430,325589,336429
1629807880431,55409,325545,336452
1629807880441,55393,325533,336362
1629807880451,55374,325458,336362
1629807880461,55363,325500,336370
1629807880471,55346,325460,336390
1629807880481,55349,325518,336399
1629807880491,55350,325497,336359
1629807880501,55351,325556,336424
1629807880511,55358,325563,336433
1629807880521,55364,325573,336410
1629807880531,55367,325551,336426
1629807880541,55382,325557,336423
1629807880551,55381,325526,336457
1629807880561,55383,325587,336492
1629807880571,55376,325558,336475
1629807880581,55378,325547,336450
1629807880591,55370,325546,336452
1629807880601,55378,325524,336444
1629807880611,55370,325521,336454
1629807880621,55357,325507,336401
1629807880631,55342,325505,336399
1629807880641,55341,325458,336371
1629807880651,55343,325474,336392
1629807880661,55348,325508,336399
1629807880671,55353,325463,336398
1629807880681,55350,325504,336403
1629807880691,55366,325484,336406
1629807880701,55371,325505,336362
1629807880711,55396,325549,336421
1629807880721,55410,325521,336414
1629807880731,55434,325516,336399
1629807880741,55448,325551,336407
1629807880751,55473,325610,336408
1629807880761,55494,325589,336393
1629807880771,55531,325610,336399
1629807880781,55546,325658,336429
1629807880791,55585,325656,336456
1629807880801,55612,325682,336439
1629807880811,55636,325733,336463
1629807880821,55672,325753,336473
1629807880831,55705,325787,336498
1629807880841,55728,325768,336478
1629807880851,55757,325769,336499
1629807880861,55795,325817,336527
1629807880871,55830,325870,336513
1629807880881,55861,325839,336504
1629807880891,55890,325899,336550
1629807880901,55925,325893,336486
1629807880911,55959,325882,336491
1629807880921,56008,325970,336517
1629807880931,56031,325876,336494
1629807880941,56064,325955,336480
1629807880951,56090,325935,336444
1629807880961,56123,325933,336413
1629807880971,56152,325905,336393
1629807880981,56182,325888,336348
1629807880991,56204,325898,336273
1629807881001,56214,325872,336242
1629807881011,56225,325764,336144
1629807881021,56246,325726,336033
1629807881031,56250,325637,335925
1629807881041,56275,325616,335852
1629807881051,56287,325596,335832
1629807881061,56316,325579,335748
1629807881071,56338,325580,335686
1629807881081,56367,325529,335620
1629807881091,56368,325541,335575
1629807881101,56403,325525,335540
1629807881111,56423,325457,335437
1629807881121,56449,325440,335445
1629807881131,56488,325508,335398
1629807881141,56525,325469,335351
1629807881151,56537,325469,335337
1629807881161,56553,325451,335314
1629807881171,56571,325429,335296
1629807881181,56582,325341,335282
1629807881191,56580,325290,335288
1629807881201,56570,325229,335290
1629807881211,56545,325180,335211
1629807881221,56517,325097,335222
1629807881231,56482,325063,335177
1629807881241,56442,325002,335262
1629807881251,56402,324936,335197
1629807881261,56373,324915,335207
1629807881271,56329,324892,335158
1629807881281,56293,324876,335174
1629807881291,56268,324834,335135
1629807881301,56231,324798,335146
1629807881311,56208,324804,335159
1629807881321,56173,324776,335130
1629807881331,56140,324759,335135
1629807881341,56122,324739,335148
1629807881351,56104,324731,335143
1629807881361,56087,324753,335128
1629807881371,56068,324791,335151
1629807881381,56044,324783,335116
1629807881391,56039,324774,335165
1629807881401,56035,324787,335181
1629807881411,56038,324831,335152
1629807881421,56027,324792,335164
1629807881431,56017,324775,335157
1629807881441,56026,324836,335148
1629807881451,56014,324803,335152
1629807881461,56010,324766,335124
1629807881471,56001,324722,335097
1629807881481,55987,324744,335084
1629807881491,55986,324731,335097
1629807881501,55962,324768,335083
1629807881511,55956,324739,335078
1629807881521,55955,324715,335047
1629807881531,55944,324689,335048
1629807881541,55940,324696,335042
1629807881551,55929,324729,335075
1629807881561,55928,324703,335046
1629807881571,55940,324726,335050
1629807881581,55927,324695,335038
1629807881591,55937,324717,335065
1629807881601,55943,324757,335078
1629807881611,55938,324726,335009
1629807881621,55956,324775,335065
1629807881631,55969,324771,335076
1629807881641,55973,324758,335043
1629807881651,55987,324856,335035
1629807881661,56006,324851,335103
1629807881671,56024,324866,335055
1629807881681,56050,324861,335095
1629807881691,56071,324895,335104
1629807881701,56091,324947,335081
1629807881711,56119,324957,335110
1629807881721,56149,325012,335144
1629807881731,56181,324992,335120
1629807881741,56200,325105,335166
1629807881751,56238,325073,335145
1629807881761,56271,325143,335158
1629807881771,56301,325131,335208
1629807881781,56331,325141,335179
1629807881791,56355,325200,335151
1629807881801,56389,325207,335219
1629807881811,56416,325260,335232
1629807881821,56433,325191,335220
1629807881831,56466,325285,335238
1629807881841,56502,325296,335203
1629807881851,56522,325330,335284
1629807881861,56558,325326,335240
1629807881871,56595,325360,335258
1629807881881,56622,325365,335246
1629807881891,56652,325422,335304
1629807881901,56668,325448,335271
1629807881911,56718,325443,335287
1629807881921,56744,325437,335314
1629807881931,56776,325470,335312
1629807881941,56816,325512,335313
1629807881951,56826,325496,335289
1629807881961,56873,325523,335299
1629807881971,56895,325522,335291
1629807881981,56929,325527,335301
1629807881991,56962,325575,335320
1629807882001,56998,325613,335323
1629807882011,57018,325595,335357
1629807882021,57054,325662,335325
1629807882031,57088,325688,335347
1629807882041,57114,325715,335377
1629807882051,57150,325717,335331
1629807882061,57191,325730,335368
1629807882071,57210,325763,335387
1629807882081,57263,325786,335349
1629807882091,57288,325789,335354
1629807882101,57304,325728,335357
1629807882111,57313,325696,335359
1629807882121,57322,325693,335370
1629807882131,57312,325641,335335
1629807882141,57292,325576,335336
1629807882151,57267,325539,335314
1629807882161,57239,325448,335322
1629807882171,57193,325375,335304
1629807882181,57144,325318,335276
1629807882191,57097,325291,335248
1629807882201,57058,325187,335248
1629807882211,57019,325175,335195
1629807882221,56970,325237,335205
1629807882231,56938,325168,335226
1629807882241,56896,325167,335201
1629807882251,56854,325101,335190
1629807882261,56819,325103,335157
1629807882271,56770,325085,335151
1629807882281,56755,325058,335176
1629807882291,56717,325039,335144
1629807882301,56682,324993,335157
1629807882311,56645,325003,335105
1629807882321,56618,324957,335085
1629807882331,56601,325000,335071
1629807882341,56573,325019,335115
1629807882351,56562,325026,335067
1629807882361,56555,324979,335079
1629807882371,56551,325013,335098
1629807882381,56532,324980,335056
1629807882391,56509,324969,335055
1629807882401,56498,324962,335054
1629807882411,56491,324981,335021
1629807882421,56461,324950,334993
1629807882431,56445,324977,335023
1629807882441,56432,324950,334999
1629807882451,56423,324929,334998
1629807882461,56401,324886,334971
1629807882471,56395,324919,334974
1629807882481,56388,324921,335010
1629807882491,56372,324892,334948
1629807882501,56366,324886,334945
1629807882511,56357,324866,334923
1629807882521,56355,324891,334913
1629807882531,56349,324910,334929
1629807882541,56362,324935,334905
1629807882551,56365,324884,334887
1629807882561,56356,324884,334910
1629807882571,56368,324923,334866
1629807882581,56372,324902,334893
1629807882591,56382,324916,334894
1629807882601,56387,324925,334874
1629807882611,56412,324969,334891
1629807882621,56425,324991,334907
1629807882631,56432,325012,334899
1629807882641,56445,324995,334888
1629807882651,56467,325055,334901
1629807882661,56487,325048,334908
1629807882671,56501,325092,334896
1629807882681,56517,325071,334888
1629807882691,56546,325148,334902
1629807882701,56572,325185,334897
1629807882711,56600,325135,334928
1629807882721,56618,325213,334946
1629807882731,56629,325220,334945
1629807882741,56660,325258,334931
1629807882751,56695,325221,334895
1629807882761,56696,325292,334961
1629807882771,56719,325283,334919
1629807882781,56763,325360,334897
1629807882791,56777,325336,334903
1629807882801,56800,325350,334915
1629807882811,56809,325334,334949
1629807882821,56843,325349,334955
1629807882831,56858,325373,334950
1629807882841,56887,325410,334913
1629807882851,56908,325402,334939
1629807882861,56947,325465,334929
1629807882871,56966,325467,334920
1629807882881,56994,325471,334928
1629807882891,57015,325532,334943
1629807882901,57035,325532,334925
1629807882911,57072,325551,334956
1629807882921,57085,325553,334962
1629807882931,57121,325580,334955
1629807882941,57142,325654,334976
1629807882951,57166,325645,334969
1629807882961,57202,325665,334979
1629807882971,57226,325683,334981
1629807882981,57250,325701,334970
1629807882991,57282,325735,334967
1629807883001,57312,325755,334979
1629807883011,57341,325805,335034
1629807883021,57369,325836,335038
1629807883031,57397,325804,335036
1629807883041,57447,325852,335071
1629807883051,57464,325862,335062
1629807883061,57479,325827,335061
1629807883071,57471,325778,335047
1629807883081,57477,325708,335057
1629807883091,57457,325689,335001
1629807883101,57438,325637,335022
1629807883111,57403,325602,335005
1629807883121,57359,325565,335004
1629807883131,57304,325488,334980
1629807883141,57248,325428,334968
1629807883151,57198,325332,334968
1629807883161,57153,325371,334951
1629807883171,57097,325321,334984
1629807883181,57047,325275,334955
1629807883191,57014,325273,334956
1629807883201,56973,325244,334928
1629807883211,56935,325251,334928
1629807883221,56882,325223,334920
1629807883231,56851,325199,334919
1629807883241,56811,325185,334894
1629807883251,56777,325186,334887
1629807883261,56735,325167,334839
1629807883271,56699,325144,334868
1629807883281,56669,325185,334845
1629807883291,56653,325168,334836
1629807883301,56638,325117,334858
1629807883311,56607,325110,334832
1629807883321,56598,325155,334864
1629807883331,56573,325147,334833
1629807883341,56565,325171,334817
1629807883351,56550,325128,334811
1629807883361,56535,325150,334837
1629807883371,56523,325124,334794
1629807883381,56496,325094,334813
1629807883391,56493,325105,334801
1629807883401,56465,325073,334758
1629807883411,56447,325069,334791
1629807883421,56424,325108,334770
1629807883431,56409,325126,334788
1629807883441,56396,325101,334796
1629807883451,56373,325093,334755
1629807883461,56374,325091,334807
1629807883471,56362,325098,334801
1629807883481,56349,325121,334788
1629807883491,56345,325159,334807
1629807883501,56346,325137,334824
1629807883511,56354,325195,334823
1629807883521,56350,325154,334831
1629807883531,56359,325226,334794
1629807883541,56371,325231,334835
1629807883551,56372,325220,334867
1629807883561,56371,325251,334882
1629807883571,56381,325291,334847
1629807883581,56402,325308,334851
1629807883591,56407,325347,334842
1629807883601,56417,325317,334856
1629807883611,56433,325335,334837
1629807883621,56445,325380,334824
1629807883631,56453,325395,334906
1629807883641,56469,325420,334866
1629807883651,56490,325441,334861
1629807883661,56501,325468,334903
1629807883671,56516,325444,334908
1629807883681,56553,325490,334893
1629807883691,56573,325512,334877
1629807883701,56586,325556,334873
1629807883711,56612,325534,334890
1629807883721,56623,325536,334926
1629807883731,56639,325566,334918
1629807883741,56655,325621,334943
1629807883751,56686,325613,334931
1629807883761,56697,325643,334919
1629807883771,56720,325639,334955
1629807883781,56754,325688,334916
1629807883791,56775,325671,334917
1629807883801,56793,325711,334891
1629807883811,56812,325730,334919
1629807883821,56840,325725,334937
1629807883831,56861,325739,334951
1629807883841,56883,325831,334956
1629807883851,56912,325827,334943
1629807883861,56934,325861,334977
1629807883871,56955,325874,334960
1629807883881,56995,325861,334968
1629807883891,57016,325932,334965
1629807883901,57042,325953,334999
1629807883911,57067,325990,334987
1629807883921,57086,325999,334999
1629807883931,57109,326028,335035
1629807883941,57145,326057,335038
1629807883951,57164,326044,335027
1629807883961,57190,326081,335042
1629807883971,57207,326043,335073
1629807883981,57224,326005,335048
1629807883991,57230,326029,334993
1629807884001,57210,325936,335039
1629807884011,57198,325888,335024
1629807884021,57165,325802,334992
1629807884031,57121,325761,334965
1629807884041,57081,325701,334973
1629807884051,57029,325644,334983
1629807884061,56965,325633,334941
1629807884071,56922,325601,334913
1629807884081,56861,325525,334928
1629807884091,56804,325486,334922
1629807884101,56772,325418,334889
1629807884111,56725,325441,334868
1629807884121,56679,325438,334875
1629807884131,56642,325399,334855
1629807884141,56608,325409,334875
1629807884151,56579,325411,334871
1629807884161,56562,325361,334792
1629807884171,56533,325379,334814
1629807884181,56507,325372,334821
1629807884191,56481,325398,334825
1629807884201,56473,325392,334808
1629807884211,56466,325416,334812
1629807884221,56445,325457,334831
1629807884231,56444,325408,334835
1629807884241,56434,325399,334821
1629807884251,56431,325459,334857
1629807884261,56424,325447,334816
1629807884271,56408,325440,334840
1629807884281,56398,325389,334813
1629807884291,56396,325428,334828
1629807884301,56382,325407,334819
1629807884311,56361,325408,334786
1629807884321,56349,325429,334821
1629807884331,56322,325410,334790
1629807884341,56304,325372,334808
1629807884351,56300,325424,334795
1629807884361,56295,325409,334783
1629807884371,56285,325428,334797
1629807884381,56270,325405,334802
1629807884391,56266,325414,334786
1629807884401,56249,325441,334767
1629807884411,56252,325446,334794
1629807884421,56255,325465,334787
1629807884431,56251,325491,334791
1629807884441,56251,325444,334758
1629807884451,56261,325509,334797
1629807884461,56270,325499,334794
1629807884471,56271,325495,334815
1629807884481,56292,325536,334765
1629807884491,56283,325495,334823
1629807884501,56305,325553,334793
1629807884511,56316,325602,334837
1629807884521,56337,325617,334820
1629807884531,56348,325638,334850
1629807884541,56368,325599,334806
1629807884551,56377,325676,334862
1629807884561,56404,325716,334856
1629807884571,56422,325723,334863
1629807884581,56429,325732,334856
1629807884591,56445,325731,334835
1629807884601,56460,325758,334856
1629807884611,56484,325812,334879
1629807884621,56495,325792,334885
1629807884631,56514,325799,334873
1629807884641,56535,325826,334867
1629807884651,56563,325859,334903
1629807884661,56570,325887,334878
1629807884671,56602,325941,334921
1629807884681,56624,325920,334946
1629807884691,56640,325921,334939
1629807884701,56669,325980,334969
1629807884711,56682,326002,334984
1629807884721,56712,326001,335022
1629807884731,56727,326050,334969
1629807884741,56747,326073,334987
1629807884751,56775,326104,335005
1629807884761,56792,326097,335011
1629807884771,56813,326178,335025
1629807884781,56856,326122,334997
1629807884791,56876,326189,335055
1629807884801,56890,326209,335033
1629807884811,56921,326245,335025
1629807884821,56945,326293,335061
1629807884831,56976,326256,335081
1629807884841,57001,326303,335088
1629807884851,57017,326260,335126
1629807884861,57024,326280,335102
1629807884871,57017,326251,335078
1629807884881,57005,326126,335085
1629807884891,56981,326077,335075
1629807884901,56934,326026,335058
1629807884911,56896,326037,335066
1629807884921,56841,325956,335024
1629807884931,56794,325894,334998
1629807884941,56730,325818,335027
1629807884951,56672,325830,335030
1629807884961,56627,325764,334992
1629807884971,56589,325763,335010
1629807884981,56550,325720,334939
1629807884991,56517,325758,334967
1629807885001,56481,325719,334984
1629807885011,56450,325728,334964
1629807885021,56418,325703,335002
1629807885031,56401,325687,334967
1629807885041,56378,325735,334976
1629807885051,56349,325741,334986
1629807885061,56336,325672,335009
1629807885071,56325,325688,334973
1629807885081,56314,325731,334957
1629807885091,56316,325760,334996
1629807885101,56312,325789,334982
1629807885111,56310,325756,334970
1629807885121,56311,325746,334984
1629807885131,56300,325790,335015
1629807885141,56298,325754,334994
1629807885151,56301,325750,335042
1629807885161,56277,325802,334976
1629807885171,56278,325719,334972
1629807885181,56261,325757,334952
1629807885191,56261,325749,335001
1629807885201,56246,325728,335016
1629807885211,56236,325764,334999
1629807885221,56228,325768,334971
1629807885231,56216,325772,334970
1629807885241,56209,325775,334992
1629807885251,56204,325789,334992
1629807885261,56203,325814,334993
1629807885271,56196,325799,335003
1629807885281,56197,325793,334994
1629807885291,56198,325825,335033
1629807885301,56213,325853,334988
1629807885311,56205,325820,334991
1629807885321,56220,325850,335013
1629807885331,56231,325822,334995
1629807885341,56239,325833,335042
1629807885351,56244,325872,335038
1629807885361,56259,325903,335016
1629807885371,56267,325946,335001
1629807885381,56287,325935,335016
1629807885391,56298,325931,335008
1629807885401,56310,326009,335044
1629807885411,56332,326014,335056
1629807885421,56350,326033,335051
1629807885431,56364,326056,335066
1629807885441,56386,326082,335106
1629807885451,56401,326074,335069
1629807885461,56421,326137,335105
1629807885471,56440,326137,335102
1629807885481,56458,326165,335101
1629807885491,56489,326196,335130
1629807885501,56512,326214,335112
1629807885511,56532,326240,335115
1629807885521,56554,326278,335124
1629807885531,56581,326245,335117
1629807885541,56595,326283,335146
1629807885551,56619,326305,335154
1629807885561,56637,326290,335146
1629807885571,56667,326362,335136
1629807885581,56715,326326,335169
1629807885591,56728,326351,335130
1629807885601,56744,326352,335191
1629807885611,56780,326412,335221
1629807885621,56806,326450,335202
1629807885631,56825,326424,335217
1629807885641,56856,326471,335203
1629807885651,56876,326493,335193
1629807885661,56903,326501,335214
1629807885671,56924,326495,335245
1629807885681,56951,326562,335266
1629807885691,56979,326512,335192
1629807885701,56976,326547,335238
1629807885711,56983,326451,335226
1629807885721,56980,326455,335151
1629807885731,56944,326388,335220
1629807885741,56917,326325,335190
1629807885751,56876,326236,335137
1629807885761,56820,326151,335154
1629807885771,56763,326059,335151
1629807885781,56702,326021,335106
1629807885791,56650,325975,335084
1629807885801,56576,325964,335078
1629807885811,56523,325915,335109
1629807885821,56474,325830,335058
1629807885831,56424,325857,335050
1629807885841,56369,325832,334973
1629807885851,56332,325819,335032
1629807885861,56294,325767,335038
1629807885871,56252,325786,335020
1629807885881,56210,325809,334999
1629807885891,56169,325754,335021
1629807885901,56140,325756,334975
1629807885911,56108,325734,334941
1629807885921,56095,325710,334969
1629807885931,56064,325762,334979
1629807885941,56064,325749,334986
1629807885951,56040,325740,334965
1629807885961,56033,325745,334914
1629807885971,56021,325745,334959
1629807885981,56015,325711,334921
1629807885991,55989,325706,334916
1629807886001,55975,325716,334930
1629807886011,55967,325711,334907
1629807886021,55945,325670,334908
1629807886031,55921,325652,334908
1629807886041,55900,325644,334858
1629807886051,55884,325651,334897
1629807886061,55874,325638,334845
1629807886071,55848,325595,334851
1629807886081,55828,325640,334872
1629807886091,55816,325618,334854
1629807886101,55801,325618,334835
1629807886111,55794,325626,334793
1629807886121,55784,325614,334874
1629807886131,55773,325611,334820
1629807886141,55770,325625,334842
1629807886151,55778,325631,334825
1629807886161,55772,325607,334831
1629807886171,55770,325648,334789
1629807886181,55766,325707,334831
1629807886191,55784,325692,334809
1629807886201,55786,325663,334802
1629807886211,55791,325666,334838
1629807886221,55802,325699,334845
1629807886231,55806,325734,334808
1629807886241,55831,325714,334872
1629807886251,55844,325733,334834
1629807886261,55863,325742,334841
1629807886271,55881,325815,334816
1629807886281,55880,325787,334865
1629807886291,55909,325815,334817
1629807886301,55931,325826,334849
1629807886311,55943,325860,334863
1629807886321,55963,325904,334868
1629807886331,55975,325917,334867
1629807886341,55988,325898,334875
1629807886351,56017,325965,334832
1629807886361,56042,325933,334889
1629807886371,56052,325964,334845
1629807886381,56077,325952,334904
1629807886391,56097,325961,334870
1629807886401,56115,326010,334837
1629807886411,56136,326010,334868
1629807886421,56155,326068,334856
1629807886431,56181,326060,334893
1629807886441,56211,326075,334885
1629807886451,56226,326063,334891
1629807886461,56249,326106,334882
1629807886471,56268,326158,334915
1629807886481,56296,326189,334905
1629807886491,56324,326177,334934
1629807886501,56335,326181,334890
1629807886511,56365,326161,334914
1629807886521,56389,326237,334911
1629807886531,56401,326188,334923
1629807886541,56408,326168,334948
1629807886551,56414,326138,334933
1629807886561,56404,326073,334898
1629807886571,56365,325972,334868
1629807886581,56327,325954,334866
1629807886591,56271,325852,334858
1629807886601,56197,325772,334825
1629807886611,56131,325676,334789
1629807886621,56044,325652,334748
1629807886631,55954,325553,334804
1629807886641,55866,325541,334733
1629807886651,55800,325456,334751
1629807886661,55726,325435,334706
1629807886671,55659,325367,334701
1629807886681,55577,325366,334685
1629807886691,55512,325327,334655
1629807886701,55447,325310,334634
1629807886711,55391,325217,334633
1629807886721,55331,325241,334665
1629807886731,55283,325216,334607
1629807886741,55225,325187,334595
1629807886751,55180,325117,334582
1629807886761,55117,325146,334551
1629807886771,55092,325099,334533
1629807886781,55075,325147,334545
1629807886791,55028,325070,334519
1629807886801,55004,325096,334544
1629807886811,54977,325077,334528
1629807886821,54946,325080,334491
1629807886831,54920,325038,334461
1629807886841,54883,325011,334483
1629807886851,54866,325003,334472
1629807886861,54824,324996,334434
1629807886871,54787,324962,334444
1629807886881,54760,324988,334412
1629807886891,54736,324958,334406
1629807886901,54701,324903,334414
1629807886911,54679,324920,334403
1629807886921,54647,324915,334374
1629807886931,54630,324848,334426
1629807886941,54613,324873,334366
1629807886951,54590,324876,334369
1629807886961,54587,324900,334331
1629807886971,54565,324896,334355
1629807886981,54558,324883,334381
1629807886991,54548,324910,334357
1629807887001,54543,324873,334347
1629807887011,54551,324900,334351
1629807887021,54547,324862,334319
1629807887031,54558,324933,334362
1629807887041,54558,324934,334344
1629807887051,54578,324913,334284
1629807887061,54583,324948,334315
1629807887071,54605,324937,334333
1629807887081,54612,324969,334339
1629807887091,54621,324972,334311
1629807887101,54645,325021,334332
1629807887111,54657,325062,334278
1629807887121,54671,325072,334298
1629807887131,54695,325041,334311
1629807887141,54720,325068,334349
1629807887151,54729,325084,334361
1629807887161,54744,325142,334342
1629807887171,54764,325123,334319
1629807887181,54810,325147,334355
1629807887191,54813,325162,334325
1629807887201,54831,325170,334321
1629807887211,54852,325173,334335
1629807887221,54871,325213,334318
1629807887231,54902,325227,334316
1629807887241,54921,325226,334330
1629807887251,54957,325213,334322
1629807887261,54965,325209,334334
1629807887271,54985,325244,334328
1629807887281,55014,325214,334318
1629807887291,55032,325276,334347
1629807887301,55058,325288,334325
1629807887311,55074,325293,334330
1629807887321,55097,325316,334333
1629807887331,55131,325327,334321
1629807887341,55155,325387,334306
1629807887351,55181,325362,334336
1629807887361,55212,325381,334326
1629807887371,55223,325352,334294
1629807887381,55227,325334,334311
1629807887391,55235,325252,334302
1629807887401,55221,325209,334293
1629807887411,55188,325154,334262
1629807887421,55155,325024,334266
1629807887431,55092,324947,334156
1629807887441,55000,324851,334145
1629807887451,54919,324765,334136
1629807887461,54826,324701,334114
1629807887471,54741,324637,334048
1629807887481,54659,324555,334053
1629807887491,54567,324525,334024
1629807887501,54483,324492,334020
1629807887511,54414,324432,333981
1629807887521,54347,324415,333995
1629807887531,54275,324321,333954
1629807887541,54207,324300,333913
1629807887551,54138,324262,333923
1629807887561,54084,324211,333869
1629807887571,54035,324123,333868
1629807887581,53974,324118,333840
1629807887591,53904,324060,333837
1629807887601,53863,324051,333832
1629807887611,53803,324062,333799
1629807887621,53771,324068,333765
1629807887631,53732,323996,333787
1629807887641,53697,323974,333716
1629807887651,53670,323972,333705
1629807887661,53638,323929,333747
1629807887671,53615,323932,333726
1629807887681,53585,323865,333692
1629807887691,53563,323829,333672
1629807887701,53523,323799,333623
1629807887711,53501,323826,333651
1629807887721,53478,323791,333649
1629807887731,53439,323778,333574
1629807887741,53411,323722,333603
1629807887751,53384,323736,333599
1629807887761,53365,323702,333581
1629807887771,53348,323701,333546
1629807887781,53330,323703,333527
1629807887791,53323,323649,333545
1629807887801,53306,323621,333538
1629807887811,53296,323678,333513
1629807887821,53293,323655,333499
1629807887831,53286,323629,333528
1629807887841,53299,323606,333511
1629807887851,53305,323658,333495
1629807887861,53305,323668,333486
1629807887871,53311,323652,333494
1629807887881,53325,323684,333497
1629807887891,53330,323700,333482
1629807887901,53343,323690,333496
1629807887911,53357,323714,333499
1629807887921,53373,323751,333496
1629807887931,53390,323733,333461
1629807887941,53414,323747,333536
1629807887951,53443,323821,333494
1629807887961,53449,323790,333502
1629807887971,53476,323780,333488
1629807887981,53496,323803,333512
1629807887991,53531,323854,333509
1629807888001,53549,323837,333492
1629807888011,53575,323863,333487
1629807888021,53595,323885,333503
1629807888031,53627,323925,333529
1629807888041,53656,323956,333497
1629807888051,53682,323949,333554
1629807888061,53720,323992,333535
1629807888071,53738,323998,333507
1629807888081,53758,323998,333574
1629807888091,53785,324027,333560
1629807888101,53824,324001,333543
1629807888111,53850,324037,333551
1629807888121,53872,324077,333570
1629807888131,53903,324061,333561
1629807888141,53934,324048,333566
1629807888151,53964,324075,333547
1629807888161,53986,324119,333549
1629807888171,54011,324112,333548
1629807888181,54043,324166,333545
1629807888191,54077,324128,333519
1629807888201,54111,324189,333521
1629807888211,54134,324150,333523
1629807888221,54173,324209,333501
1629807888231,54194,324264,333536
1629807888241,54247,324199,333509
1629807888251,54278,324197,333520
1629807888261,54322,324273,333538
1629807888271,54329,324236,333515
1629807888281,54351,324203,333483
1629807888291,54356,324161,333492
1629807888301,54338,324099,333447
1629807888311,54314,324007,333429
1629807888321,54263,323950,333397
1629807888331,54199,323811,333350
1629807888341,54130,323725,333355
1629807888351,54050,323699,333312
1629807888361,53957,323603,333277
1629807888371,53872,323582,333279
1629807888381,53796,323474,333275
1629807888391,53737,323506,333257
1629807888401,53670,323437,333241
1629807888411,53592,323399,333259
1629807888421,53536,323387,333246
1629807888431,53475,323367,333208
