timestamp,green,ir,red
1629709735521,57572,57854,57863
1629709735531,80903,90638,90634
1629709735541,80432,123243,123408
1629709735551,80002,156009,156183
1629709735561,79636,188622,188960
1629709735571,79357,210896,221547
1629709735581,79150,210493,254157
1629709735591,79013,210241,279885
1629709735601,78921,210105,279426
1629709735611,78826,209942,278993
1629709735621,78653,209635,278248
1629709735631,78434,209147,277147
1629709735641,78265,208738,276232
1629709735651,78212,208676,275734
1629709735661,78253,208796,275822
1629709735671,78365,209215,276561
1629709735681,78561,209935,277911
1629709735691,78797,210587,279013
1629709735701,79028,211113,279649
1629709735711,79422,212010,280708
1629709735721,79634,212446,281359
1629709735731,79522,211947,280538
1629709735741,79065,210381,277952
1629709735751,78488,208284,274779
1629709735761,77994,206151,271523
1629709735771,77756,205244,269761
1629709735781,77832,205433,270148
1629709735791,78478,207246,273544
1629709735801,79347,209635,278275
1629709735811,79994,211449,281633
1629709735821,80245,212141,282961
1629709735831,80422,212701,284043
1629709735841,80602,213106,285141
1629709735851,80787,213621,286142
1629709735861,80902,213860,286838
1629709735871,80879,213756,286660
1629709735881,80650,213121,285217
1629709735891,80302,212235,283434
1629709735901,80178,211845,282736
1629709735911,80287,212149,283521
1629709735921,80688,213104,285699
1629709735931,81100,214002,287754
1629709735941,81321,214471,288549
1629709735951,81184,214148,287637
1629709735961,80920,213610,286249
1629709735971,80681,213182,285049
1629709735981,80529,213001,284453
1629709735991,80439,213014,284327
1629709736001,80312,212918,283957
1629709736011,80276,212952,283941
1629709736021,80386,213266,284440
1629709736031,80665,214048,285322
1629709736041,80954,214677,286303
1629709736051,81091,214965,287288
1629709736061,81323,215419,289184
1629709736071,81929,216464,292680
1629709736081,82187,216630,293357
1629709736091,81671,215252,290225
1629709736101,81177,214086,287635
1629709736111,81072,213978,287044
1629709736121,81425,214922,288828
1629709736131,81750,215668,290353
1629709736141,81492,215099,288686
1629709736151,81091,214191,286418
1629709736161,80832,213609,285087
1629709736171,80841,213548,285217
1629709736181,80917,213617,285768
1629709736191,80708,212934,284270
1629709736201,80309,211952,282279
1629709736211,79995,211069,280601
1629709736221,79682,210212,279070
1629709736231,79407,209508,277730
1629709736241,79189,208985,276767
1629709736251,79072,208766,276272
1629709736261,78996,208637,275965
1629709736271,78927,208493,275709
1629709736281,78850,208398,275402
1629709736291,78798,208285,275054
1629709736301,78717,208142,274528
1629709736311,78663,207989,274089
1629709736321,78651,207991,273874
1629709736331,78715,208060,274025
1629709736341,78878,208433,274724
1629709736351,79335,209517,276469
1629709736361,79975,210966,278819
1629709736371,80253,211538,279861
1629709736381,80189,211375,279369
1629709736391,79988,210795,278191
1629709736401,79820,210280,277254
1629709736411,79886,210422,277515
1629709736421,80225,211308,279529
1629709736431,80819,212838,282692
1629709736441,81160,213725,284107
1629709736451,81350,214171,284916
1629709736461,81472,214515,285989
1629709736471,81644,214840,287161
1629709736481,81774,215096,287953
1629709736491,81939,215402,288825
1629709736501,82136,215798,289898
1629709736511,82274,216136,290546
1629709736521,82258,216059,290423
1629709736531,82160,215756,289942
1629709736541,82051,215491,289488
1629709736551,82014,215350,289293
1629709736561,81990,215329,289495
1629709736571,82040,215459,289733
1629709736581,82087,215602,290042
1629709736591,82110,215780,290255
1629709736601,82089,215860,290206
1629709736611,82010,215793,289827
1629709736621,81909,215646,289329
1629709736631,81779,215500,288630
1629709736641,81664,215351,288006
1629709736651,81665,215334,287638
1629709736661,81766,215576,287854
1629709736671,82047,216312,288852
1629709736681,82425,217214,290363
1629709736691,82727,217925,292047
1629709736701,83002,218622,294094
1629709736711,83441,219488,296782
1629709736721,83656,219642,297463
1629709736731,83369,218764,295408
1629709736741,83036,217907,293565
1629709736751,83049,218094,293841
1629709736761,83303,218874,295004
1629709736771,83516,219492,296014
1629709736781,83551,219585,296209
1629709736791,83438,219251,295470
1629709736801,83276,218818,294610
1629709736811,83212,218549,294314
1629709736821,83283,218616,294715
1629709736831,83344,218631,295133
1629709736841,83238,218227,294659
1629709736851,82970,217494,293190
1629709736861,82615,216563,291572
1629709736871,82334,215910,290415
1629709736881,82194,215645,290075
1629709736891,82223,215760,290407
1629709736901,82220,215941,290739
1629709736911,82094,215779,290346
1629709736921,81857,215439,289483
1629709736931,81607,214985,288365
1629709736941,81383,214615,287296
1629709736951,81216,214248,286409
1629709736961,81138,214111,285970
1629709736971,81106,214086,285968
1629709736981,81116,214159,286145
1629709736991,81130,214199,285859
1629709737001,81291,214415,285729
1629709737011,81225,214156,285018
1629709737021,81073,213763,284540
1629709737031,80876,213160,283622
1629709737041,80544,212162,281838
1629709737051,80264,211318,280066
1629709737061,80151,210955,279140
1629709737071,80095,210721,278548
1629709737081,80264,211233,279139
1629709737091,80620,212200,280784
1629709737101,80991,213330,283100
1629709737111,81448,214653,286005
1629709737121,81788,215416,287885
1629709737131,81884,215736,288721
1629709737141,82039,216062,289490
1629709737151,82275,216682,290792
1629709737161,82588,217340,292449
1629709737171,82842,217851,293710
1629709737181,82981,217962,294209
1629709737191,82916,217645,293862
1629709737201,82774,217188,293073
1629709737211,82622,216795,292364
1629709737221,82561,216626,292053
1629709737231,82575,216648,292112
1629709737241,82711,217052,292961
1629709737251,82887,217392,293749
1629709737261,82935,217463,293817
1629709737271,82931,217387,293648
1629709737281,82805,217024,292879
1629709737291,82751,216870,292416
1629709737301,82755,216793,292241
1629709737311,82858,217028,292447
1629709737321,83152,217679,293353
1629709737331,83376,218237,294364
1629709737341,83444,218363,294993
1629709737351,83425,218226,295152
1629709737361,83547,218310,295600
1629709737371,83701,218333,295955
1629709737381,83561,217732,294815
1629709737391,83206,216908,292632
1629709737401,82869,216192,290716
1629709737411,82663,215768,289487
1629709737421,82601,215633,289219
1629709737431,82581,215493,289175
1629709737441,82529,215234,288885
1629709737451,82356,214697,287854
1629709737461,82185,214197,286892
1629709737471,82029,213779,286174
1629709737481,81856,213261,285320
1629709737491,81554,212481,283757
1629709737501,81257,211658,282184
1629709737511,81009,211057,281129
1629709737521,80875,210797,280699
1629709737531,80805,210677,280502
1629709737541,80667,210451,280110
1629709737551,80504,210247,279641
1629709737561,80360,210075,279081
1629709737571,80273,209892,278690
1629709737581,80232,209866,278491
1629709737591,80226,209982,278543
1629709737601,80265,210205,278961
1629709737611,80385,210551,279565
1629709737621,80523,211040,280220
1629709737631,80946,211997,281381
1629709737641,81476,213157,282815
1629709737651,81680,213551,283572
1629709737661,81485,212970,282947
1629709737671,80985,211182,280281
1629709737681,80606,209273,278434
1629709737691,80164,207928,275323
1629709737701,80087,207523,274746
1629709737711,80265,208106,275411
1629709737721,80788,209668,277954
1629709737731,81466,211476,281383
1629709737741,82005,212930,284277
1629709737751,82225,213546,285677
1629709737761,82280,213755,286198
1629709737771,82353,214014,286834
1629709737781,82472,214295,287460
1629709737791,82565,214465,287876
1629709737801,82519,214380,287775
1629709737811,82370,214051,287187
1629709737821,82207,213616,286468
1629709737831,82075,213324,285986
1629709737841,82055,213292,286057
1629709737851,82114,213543,286506
1629709737861,82223,213931,287238
1629709737871,82377,214390,288026
1629709737881,82469,214707,288438
1629709737891,82479,214814,288394
1629709737901,82419,214779,288061
1629709737911,82327,214736,287678
1629709737921,82233,214519,287123
1629709737931,82103,214304,286548
1629709737941,82211,214497,286690
1629709737951,82413,214890,287266
1629709737961,82633,215307,287890
1629709737971,82803,215525,288637
1629709737981,83029,215931,290111
1629709737991,83605,217034,293347
1629709738001,84523,218712,297464
1629709738011,84543,218364,296628
1629709738021,83915,216675,292843
1629709738031,83554,215837,290853
1629709738041,83684,216225,291700
1629709738051,84096,217198,294024
1629709738061,84112,217144,293948
1629709738071,83654,216005,291362
1629709738081,83215,214957,289114
1629709738091,83082,214667,288668
1629709738101,83234,214992,289607
1629709738111,83360,215141,290156
1629709738121,83100,214520,288797
1629709738131,82692,213653,286914
1629709738141,82386,213034,285586
1629709738151,82173,212611,284839
1629709738161,82036,212352,284255
1629709738171,81853,212091,283590
1629709738181,81600,211644,282585
1629709738191,81340,211145,281546
1629709738201,81063,210576,280205
1629709738211,80778,209964,278786
1629709738221,80592,209532,277595
1629709738231,80460,209281,276845
1629709738241,80408,209248,276639
1629709738251,80438,209408,276846
1629709738261,80573,209835,277651
1629709738271,80971,210779,279377
1629709738281,81539,211955,281213
1629709738291,81727,212171,281161
1629709738301,81451,210903,279526
1629709738311,80997,209393,276804
1629709738321,80571,207928,274534
1629709738331,80491,207534,274036
1629709738341,80666,207964,274821
1629709738351,81164,209365,277284
1629709738361,81928,211489,280838
1629709738371,82497,213005,283257
1629709738381,82676,213452,284179
1629709738391,82702,213598,284695
1629709738401,82712,213645,285255
1629709738411,82761,213714,285762
1629709738421,82840,213721,286235
1629709738431,82925,213774,286666
1629709738441,83017,213966,287097
1629709738451,83141,214265,287689
1629709738461,83229,214467,288226
1629709738471,83265,214558,288430
1629709738481,83229,214477,288319
1629709738491,83198,214435,288145
1629709738501,83156,214331,287994
1629709738511,83117,214287,287790
1629709738521,83091,214316,287681
1629709738531,83072,214352,287679
1629709738541,83107,214522,287853
1629709738551,83062,214525,287793
1629709738561,83058,214599,287881
1629709738571,83011,214569,287838
1629709738581,82968,214537,287755
1629709738591,83028,214710,288016
1629709738601,83266,215173,288808
1629709738611,83616,215920,290234
1629709738621,83961,216703,291944
1629709738631,84119,217018,292902
1629709738641,84163,216932,293143
1629709738651,84206,216787,293112
1629709738661,84263,216666,292920
1629709738671,84205,216296,292254
1629709738681,84108,215958,291464
1629709738691,84225,216283,291800
1629709738701,84430,216702,292769
1629709738711,84384,216434,292288
1629709738721,84027,215469,290229
1629709738731,83683,214591,288594
1629709738741,83595,214253,288147
1629709738751,83620,214178,288126
1629709738761,83506,213873,287401
1629709738771,83274,213362,286239
1629709738781,83072,212920,285354
1629709738791,82977,212688,285026
1629709738801,82931,212584,284898
1629709738811,82835,212394,284529
1629709738821,82708,212157,284000
1629709738831,82572,211919,283571
1629709738841,82343,211566,282736
1629709738851,82035,210919,281358
1629709738861,81754,210355,279838
1629709738871,81511,209813,278381
1629709738881,81325,209306,277227
1629709738891,81249,209137,276583
1629709738901,81190,209086,276404
1629709738911,81387,209590,277413
1629709738921,81923,210966,280278
1629709738931,82647,212498,283001
1629709738941,82637,212333,281900
1629709738951,82415,211473,280290
1629709738961,81757,209431,276706
1629709738971,81017,207257,273127
1629709738981,80752,206259,271569
1629709738991,80789,206110,271609
1629709739001,81184,206884,273150
1629709739011,81688,208061,275260
1629709739021,82273,209421,277625
1629709739031,82521,209944,278577
1629709739041,82546,209839,278671
1629709739051,82502,209582,278504
1629709739061,82454,209333,278364
1629709739071,82427,209218,278280
1629709739081,82484,209349,278666
1629709739091,82617,209713,279475
1629709739101,82760,210070,280171
1629709739111,82770,210086,280206
1629709739121,82699,209994,280000
1629709739131,82702,210052,280136
1629709739141,82729,210188,280445
1629709739151,82673,210155,280440
1629709739161,82609,210125,280275
1629709739171,82589,210222,280273
1629709739181,82621,210412,280498
1629709739191,82654,210581,280650
1629709739201,82664,210658,280611
1629709739211,82582,210520,280213
1629709739221,82454,210284,279555
1629709739231,82396,210259,279184
1629709739241,82503,210586,279593
1629709739251,82858,211402,280925
1629709739261,83301,212345,282764
1629709739271,83445,212521,283211
1629709739281,83155,211674,281638
1629709739291,82876,210848,280176
1629709739301,82901,210706,280216
1629709739311,82955,210737,280258
1629709739321,82968,210766,280020
1629709739331,83161,211205,280857
1629709739341,83381,211662,281710
1629709739351,83339,211504,281325
1629709739361,83194,210998,280448
1629709739371,82987,210229,279423
1629709739381,82776,209419,278173
1629709739391,82568,208759,277069
1629709739401,82486,208397,276535
1629709739411,82412,208105,276255
1629709739421,82367,207978,276002
1629709739431,82296,207782,275724
1629709739441,82199,207634,275484
1629709739451,82168,207580,275458
1629709739461,82106,207486,275255
1629709739471,82008,207432,275153
1629709739481,81979,207555,275235
1629709739491,81943,207687,275416
1629709739501,81890,207813,275362
1629709739511,81905,208097,275618
1629709739521,82024,208465,275944
1629709739531,82131,208850,276357
1629709739541,82191,209116,276648
1629709739551,82209,209258,276791
1629709739561,82299,209545,276941
1629709739571,82537,210151,277753
1629709739581,82997,211167,279445
1629709739591,83362,212048,281134
1629709739601,83174,211273,279783
1629709739611,82493,209254,276823
1629709739621,82122,208009,275217
1629709739631,82014,207715,274664
1629709739641,82361,208523,276471
1629709739651,82885,209802,278789
1629709739661,83441,211257,281180
1629709739671,83776,212107,282656
1629709739681,83861,212386,283111
1629709739691,83806,212167,283068
1629709739701,83708,211906,282890
1629709739711,83653,211694,282715
1629709739721,83621,211607,282618
1629709739731,83619,211596,282641
1629709739741,83646,211666,282906
1629709739751,83679,211806,283164
1629709739761,83696,211897,283415
1629709739771,83654,211941,283459
1629709739781,83639,212024,283530
1629709739791,83653,212184,283875
1629709739801,83768,212534,284591
1629709739811,83894,212984,285277
1629709739821,83892,213034,285195
1629709739831,83789,212873,284589
1629709739841,83706,212745,284131
1629709739851,83692,212753,283933
1629709739861,83701,212773,283890
1629709739871,83648,212730,283728
1629709739881,83602,212657,283432
1629709739891,83651,212709,283302
1629709739901,83947,213360,284247
1629709739911,84489,214406,286323
1629709739921,84661,214628,287132
1629709739931,84306,213676,285540
1629709739941,83968,212734,283842
1629709739951,83995,212793,283879
1629709739961,84253,213469,285167
1629709739971,84517,214072,286202
1629709739981,84762,214649,287099
1629709739991,85018,215263,288172
1629709740001,85099,215396,288597
1629709740011,84868,214826,287534
1629709740021,84476,213755,285688
1629709740031,84187,212837,284435
1629709740041,84009,212088,283393
1629709740051,83791,211410,282079
1629709740061,83578,210886,281061
1629709740071,83463,210584,280590
1629709740081,83383,210421,280331
1629709740091,83225,210150,279734
1629709740101,83028,209697,278845
1629709740111,82802,209246,277877
1629709740121,82566,208777,276917
1629709740131,82362,208388,276107
1629709740141,82184,207976,275289
1629709740151,81996,207646,274410
1629709740161,81851,207369,273657
1629709740171,81761,207179,273141
1629709740181,81741,207303,273025
1629709740191,81829,207664,273422
1629709740201,82027,208368,274538
1629709740211,82415,209457,276443
1629709740221,83076,211104,279141
1629709740231,83888,212913,282012
1629709740241,84294,213713,283400
1629709740251,84215,213328,282985
1629709740261,83584,211428,280104
1629709740271,82617,208616,275697
1629709740281,81759,206073,271434
1629709740291,81064,204111,267632
1629709740301,80851,203735,266667
1629709740311,81296,204816,268814
1629709740321,82586,207647,275441
1629709740331,83076,208793,276798
1629709740341,82971,208790,276524
1629709740351,83141,209449,277970
1629709740361,83387,210136,279475
1629709740371,83505,210395,280101
1629709740381,83469,210395,280077
1629709740391,83451,210462,280031
1629709740401,83238,209967,279083
1629709740411,83074,209525,278335
1629709740421,83047,209413,278318
1629709740431,83124,209580,278737
1629709740441,83162,209739,279049
1629709740451,83125,209789,279053
1629709740461,83050,209730,278797
1629709740471,83023,209791,278752
1629709740481,83076,209971,278862
1629709740491,83127,210128,278913
1629709740501,83162,210218,278820
1629709740511,83131,210118,278280
1629709740521,83042,209941,277574
1629709740531,83030,209890,277047
1629709740541,83197,210217,277008
1629709740551,83464,210840,277705
1629709740561,83731,211534,279014
1629709740571,83972,212061,280936
1629709740581,83943,211491,280726
1629709740591,83463,210091,278631
1629709740601,83206,209392,277115
1629709740611,83155,209450,277050
1629709740621,83566,210586,279357
1629709740631,84528,213175,284626
1629709740641,84853,214250,286206
1629709740651,84671,214032,285497
1629709740661,84588,213703,285292
1629709740671,84495,212516,284326
1629709740681,84411,211647,282567
1629709740691,84106,210486,280513
1629709740701,84098,210360,280653
1629709740711,84085,210073,280369
1629709740721,84109,210211,280746
1629709740731,83874,209780,279464
1629709740741,83662,209316,278569
1629709740751,83842,209939,279948
1629709740761,84207,210927,281893
1629709740771,84181,211263,282175
1629709740781,84072,211441,282262
1629709740791,83868,211461,281744
1629709740801,83366,210612,279457
1629709740811,82715,209166,276180
1629709740821,82101,207777,273179
1629709740831,81677,206880,271136
1629709740841,81478,206612,270260
1629709740851,81509,207129,270454
1629709740861,81948,208624,272146
1629709740871,83147,211920,277088
1629709740881,84614,215755,283353
1629709740891,85446,217656,287024
1629709740901,85540,217880,287894
1629709740911,85680,218219,289124
1629709740921,85707,218517,289468
1629709740931,85529,218291,288368
1629709740941,85525,218275,287892
1629709740951,85289,217735,285430
1629709740961,84912,216763,282843
1629709740971,84144,214578,278830
1629709740981,83234,211979,274332
1629709740991,82105,208769,269526
1629709741001,81070,205446,265177
1629709741011,80491,202385,263894
1629709741021,84153,209681,283277
1629709741031,87138,214086,290309
1629709741041,85280,206416,277239
1629709741051,82803,198104,263131
1629709741061,77783,186289,245760
1629709741071,76953,186408,240737
1629709741081,77247,188217,242820
1629709741091,77394,189096,243967
1629709741101,77526,189775,245134
1629709741111,78451,192334,250003
1629709741121,80031,196543,257512
1629709741131,81705,200746,265305
1629709741141,83359,204816,273012
1629709741151,84887,208701,280316
1629709741161,86204,212068,286767
1629709741171,87121,214398,291212
1629709741181,87779,215926,293624
1629709741191,87392,214857,291130
1629709741201,85974,211231,283678
1629709741211,84050,206746,275306
1629709741221,82319,202736,267472
1629709741231,80882,199604,261008
1629709741241,79944,197371,256299
1629709741251,79392,196204,253715
1629709741261,79289,195967,253344
1629709741271,79675,196888,255176
1629709741281,80488,198712,259405
1629709741291,81877,201526,266565
1629709741301,83608,205086,273992
1629709741311,82931,202813,269168
1629709741321,80737,195906,257272
1629709741331,79955,192331,254664
1629709741341,88019,210830,287451
1629709741351,92774,220985,302534
1629709741361,94467,223724,305915
1629709741371,92968,219106,297538
1629709741381,91187,214242,289442
1629709741391,90447,212196,285993
1629709741401,90123,211312,284291
1629709741411,89829,210768,283174
1629709741421,89507,210165,281960
1629709741431,89080,209344,280399
1629709741441,88676,208611,279084
1629709741451,88358,208111,278024
1629709741461,88190,207892,277494
1629709741471,88131,207966,277484
1629709741481,88128,208012,277637
1629709741491,88114,208122,277671
1629709741501,88081,208022,277409
1629709741511,88057,207911,277292
1629709741521,88056,207595,277071
1629709741531,87901,207057,276544
1629709741541,87703,206514,276089
1629709741551,87718,206562,277191
1629709741561,89210,210330,285220
1629709741571,91848,216700,295832
1629709741581,92794,218502,298463
1629709741591,93001,218545,298537
1629709741601,93071,218382,298200
1629709741611,92763,217312,296118
1629709741621,92068,215469,292801
1629709741631,91293,213444,289402
1629709741641,90743,212281,287361
1629709741651,90654,212212,287317
1629709741661,90715,212443,287613
1629709741671,90515,211890,286543
1629709741681,90032,210661,284391
1629709741691,89515,209458,282420
1629709741701,89218,208722,281210
1629709741711,89057,208540,280919
1629709741721,89084,208851,281376
1629709741731,89083,209033,281696
1629709741741,89010,208946,281575
1629709741751,88832,208674,280989
1629709741761,88638,208313,280326
1629709741771,88486,208006,279960
1629709741781,88463,207782,279863
1629709741791,88421,207860,279995
1629709741801,88448,208006,280284
1629709741811,88465,208116,280387
1629709741821,88449,208101,280297
1629709741831,88483,208107,280415
1629709741841,88560,208302,280963
1629709741851,88534,208418,281340
1629709741861,88356,207991,280770
1629709741871,88141,207474,280112
1629709741881,87989,207180,280307
1629709741891,88405,208048,282443
1629709741901,88948,209255,284557
1629709741911,89578,210704,287289
1629709741921,90423,212779,290982
1629709741931,91204,214858,294237
1629709741941,91917,216702,297501
1629709741951,92918,219424,301921
1629709741961,93833,221781,305773
1629709741971,94900,224580,310349
1629709741981,96103,227695,315418
1629709741991,96960,229856,318869
1629709742001,97570,231502,321651
1629709742011,98058,232710,323725
1629709742021,98188,232945,324116
1629709742031,97854,231887,322346
1629709742041,97185,229944,319266
1629709742051,96367,227692,315784
1629709742061,95574,225430,312267
1629709742071,94739,223116,308528
1629709742081,93928,220817,305032
1629709742091,93249,218876,301903
1629709742101,92684,217303,299486
1629709742111,92266,216174,297749
1629709742121,92019,215521,296780
1629709742131,91730,214905,295751
1629709742141,91447,214204,294652
1629709742151,91211,213688,293769
1629709742161,91163,213594,293980
1629709742171,91587,214826,296575
1629709742181,92163,216483,299566
1629709742191,92579,217828,302059
1629709742201,93859,222482,310749
1629709742211,97060,233489,328220
1629709742221,99651,240001,337772
1629709742231,99240,237963,334217
1629709742241,98731,236302,331804
1629709742251,98669,235913,331255
1629709742261,98276,234571,329225
1629709742271,97739,233107,326880
1629709742281,97298,231882,325029
1629709742291,96922,230695,323171
1629709742301,96586,229596,321420
1629709742311,96233,228340,319392
1629709742321,95752,226843,317091
1629709742331,95198,225306,314671
1629709742341,94771,223933,312604
1629709742351,94399,222981,311077
1629709742361,94154,222280,309968
1629709742371,93939,221537,308853
1629709742381,93658,220624,307450
1629709742391,93328,219672,305724
1629709742401,92985,218630,304092
1629709742411,92701,217879,302851
1629709742421,92491,217326,302087
1629709742431,92355,216969,301550
1629709742441,92233,216734,301087
1629709742451,92091,216418,300501
1629709742461,91918,215980,299813
1629709742471,91833,215709,299564
1629709742481,91877,216079,300220
1629709742491,92113,217038,302002
1629709742501,92167,217273,302288
1629709742511,92018,216936,301700
1629709742521,92054,217247,302610
1629709742531,92783,220119,308347
1629709742541,95401,229427,323501
1629709742551,97285,234910,332022
1629709742561,97921,236327,334387
1629709742571,98499,237802,336961
1629709742581,99304,239856,340282
1629709742591,99660,240678,341536
1629709742601,99954,241440,343000
1629709742611,100671,243437,346414
1629709742621,101820,246196,351107
1629709742631,102949,248972,355614
1629709742641,103819,250900,358767
1629709742651,104242,251762,360273
1629709742661,104246,251685,360134
1629709742671,103881,250769,358703
1629709742681,103305,249118,356245
1629709742691,102343,246434,351962
1629709742701,101087,243023,346457
1629709742711,99815,239211,340300
1629709742721,98637,235735,334780
1629709742731,97664,232859,330280
1629709742741,96968,230735,327156
1629709742751,96472,229321,324985
1629709742761,96084,228235,323344
1629709742771,95792,227480,322163
1629709742781,95523,226754,321171
1629709742791,95369,226391,321019
1629709742801,95499,226946,322397
1629709742811,95835,228068,324421
1629709742821,96109,229033,326141
1629709742831,96508,230715,329378
1629709742841,97928,235797,338536
1629709742851,100218,243004,350954
1629709742861,101729,246869,357118
1629709742871,101528,245719,355234
1629709742881,101283,244758,353960
1629709742891,101238,244382,353426
1629709742901,100981,243506,351939
1629709742911,100433,241983,349102
1629709742921,99772,240095,345715
1629709742931,99214,238423,342908
1629709742941,98894,237372,341280
1629709742951,98599,236349,339587
1629709742961,98154,234803,336922
1629709742971,97604,233093,333948
1629709742981,97093,231679,331401
1629709742991,96753,230641,329531
1629709743001,96506,229986,328206
1629709743011,96327,229447,327195
1629709743021,96064,228740,325831
1629709743031,95740,227717,323968
1629709743041,95411,226753,322294
1629709743051,95182,226065,321196
1629709743061,95073,225785,320704
1629709743071,95031,225698,320561
1629709743081,94971,225713,320445
1629709743091,94914,225566,320334
1629709743101,94814,225301,319992
1629709743111,94728,225133,320161
1629709743121,94813,225543,321406
1629709743131,95100,226698,323654
1629709743141,95364,227700,325439
1629709743151,95524,228386,326729
1629709743161,95864,229707,329583
1629709743171,97236,234419,338605
1629709743181,99110,240069,348112
1629709743191,100360,243339,354062
1629709743201,101407,246123,359196
1629709743211,102443,248804,363921
1629709743221,103364,251171,368161
1629709743231,104314,253598,372531
1629709743241,105493,256309,377445
1629709743251,106771,258985,382342
1629709743261,107944,261577,386868
1629709743271,108667,263146,389195
1629709743281,108967,263799,390058
1629709743291,108898,263784,389700
1629709743301,108494,262954,388041
1629709743311,107797,261558,385596
1629709743321,106937,259581,382284
1629709743331,105950,257128,378294
1629709743341,104656,253898,372873
1629709743351,103262,250248,366645
1629709743361,101968,246719,360967
1629709743371,100783,243374,355477
1629709743381,99928,240912,351551
1629709743391,99304,239104,348605
1629709743401,98853,237872,346632
1629709743411,98528,236971,345231
1629709743421,98271,236303,344069
1629709743431,98077,235584,343385
1629709743441,98178,235505,344642
1629709743451,98850,237137,348617
1629709743461,99806,239526,353411
1629709743471,100757,242483,359056
1629709743481,103385,250383,373426
1629709743491,107255,260362,390782
1629709743501,109539,264563,397634
1629709743511,109011,263148,394666
1629709743521,108774,262041,393411
1629709743531,108392,261004,391808
1629709743541,108142,260500,391080
1629709743551,107578,259252,388635
1629709743561,106520,256539,383784
1629709743571,105265,253325,378345
1629709743581,104338,250912,374300
1629709743591,103738,249255,371678
1629709743601,103244,247814,369442
1629709743611,102718,246270,366851
1629709743621,102033,244577,363767
1629709743631,101362,242959,360716
1629709743641,100800,241743,358396
1629709743651,100374,240791,356345
1629709743661,99952,239867,354396
1629709743671,99489,238879,352350
1629709743681,99081,237882,350412
1629709743691,98700,236957,348707
1629709743701,98392,236287,347362
1629709743711,98153,235669,346296
1629709743721,97970,235218,345531
1629709743731,97789,234978,344952
1629709743741,97667,234700,344508
1629709743751,97546,234362,344119
1629709743761,97593,234193,344923
1629709743771,98025,235145,347863
1629709743781,98784,237181,352006
1629709743791,99028,237937,353042
1629709743801,99062,238427,353991
1629709743811,99743,240458,358411
1629709743821,101976,246662,370423
1629709743831,103982,251214,378225
1629709743841,104564,251972,379999
1629709743851,105151,253216,382462
1629709743861,106145,255474,386713
1629709743871,107232,258201,391191
1629709743881,108399,261307,395760
1629709743891,109370,263742,399286
1629709743901,110232,265734,402269
1629709743911,111206,267717,405370
1629709743921,112419,269888,409122
1629709743931,113535,272066,412287
1629709743941,114196,273326,413840
1629709743951,114008,273092,412672
1629709743961,113050,271512,409366
1629709743971,111763,269070,404885
1629709743981,110425,266111,400396
1629709743991,108822,262447,394497
1629709744001,107186,258596,388223
1629709744011,105647,254840,382148
1629709744021,104401,251702,377081
1629709744031,103392,249199,372794
1629709744041,102676,247352,369864
1629709744051,102185,246026,367795
1629709744061,101818,245013,366369
1629709744071,101579,244214,365417
1629709744081,101609,243828,365880
1629709744091,102166,244747,368656
1629709744101,103010,246340,372149
1629709744111,103371,247079,373639
1629709744121,103812,248453,376305
1629709744131,106398,255826,389470
1629709744141,111167,267058,406202
1629709744151,113367,271089,411605
1629709744161,112652,268875,408113
1629709744171,111685,266471,404791
1629709744181,111177,265057,402965
1629709744191,110387,263203,400099
1629709744201,109125,260608,395802
1629709744211,108023,258274,391935
1629709744221,107232,256613,389283
1629709744231,106675,255315,387261
1629709744241,106062,253686,384686
1629709744251,105179,251651,381134
1629709744261,104218,249361,377361
1629709744271,103322,247475,373951
1629709744281,102713,246152,371563
1629709744291,102214,245101,369484
1629709744301,101711,244075,367345
1629709744311,101152,242918,365129
1629709744321,100580,241531,362514
1629709744331,99971,240140,359926
1629709744341,99544,239090,358033
1629709744351,99274,238528,357026
1629709744361,99158,238344,356692
1629709744371,99085,238331,356535
1629709744381,99029,238186,356321
1629709744391,98946,237908,356070
1629709744401,98995,237740,356502
1629709744411,99377,238316,358644
1629709744421,100113,239907,362237
1629709744431,100826,241596,365322
1629709744441,100948,241953,365893
1629709744451,101102,242238,366769
1629709744461,101676,243535,369664
1629709744471,102814,246110,374714
1629709744481,104060,248539,379341
1629709744491,105533,251807,385145
1629709744501,107297,255949,391599
1629709744511,108965,260033,397648
1629709744521,110771,264820,404042
1629709744531,112600,269313,409681
1629709744541,114236,272778,414035
1629709744551,115711,275639,417692
1629709744561,117060,278217,420920
1629709744571,118064,280161,422970
1629709744581,118364,280896,423333
1629709744591,117993,280323,422060
1629709744601,116953,278523,419051
1629709744611,115590,276032,415341
1629709744621,114292,273267,411624
1629709744631,112677,269850,406920
1629709744641,110900,265901,401416
1629709744651,109114,261754,395690
1629709744661,107612,258063,390450
1629709744671,106501,255207,386430
1629709744681,105656,253109,383391
1629709744691,104972,251629,381033
1629709744701,104457,250387,379170
1629709744711,104100,249450,377799
1629709744721,103912,248706,377104
1629709744731,104269,248835,378426
1629709744741,105063,250422,381610
1629709744751,106088,252360,385231
1629709744761,106760,254132,387906
1629709744771,108592,259139,395967
1629709744781,112888,269593,409903
1629709744791,115637,275587,416381
1629709744801,115087,273843,413628
1629709744811,113749,270251,409353
1629709744821,113222,268870,407755
1629709744831,113074,268620,407447
1629709744841,112674,267748,406213
1629709744851,111648,265555,403165
1629709744861,110507,263000,399667
1629709744871,109568,260801,396683
1629709744881,108972,259235,394660
1629709744891,108254,257378,391997
1629709744901,107339,255112,388616
1629709744911,106391,252962,385349
1629709744921,105591,251275,382331
1629709744931,104907,249931,380083
1629709744941,104267,248737,377773
1629709744951,103609,247380,375279
1629709744961,102944,246057,372881
1629709744971,102399,244867,370711
1629709744981,101931,243919,368905
1629709744991,101574,243191,367457
1629709745001,101336,242659,366727
1629709745011,101167,242252,366011
1629709745021,101055,241947,365520
1629709745031,100966,241718,365126
1629709745041,100980,241419,365219
1629709745051,101257,241615,366327
1629709745061,101858,242619,368767
1629709745071,102391,243703,370882
1629709745081,102542,244061,371299
1629709745091,102500,244079,371348
1629709745101,103054,245429,374187
1629709745111,104894,249852,382244
1629709745121,108723,258687,396008
1629709745131,111979,265734,404976
1629709745141,114424,271127,411229
1629709745151,115631,273885,414255
1629709745161,117101,277370,418263
1629709745171,118759,281051,422525
1629709745181,120865,285748,427269
1629709745191,123357,291885,431856
1629709745201,125694,298253,435864
1629709745211,127073,301780,438002
1629709745221,127301,301893,438031
1629709745231,126580,299560,436590
1629709745241,124994,296048,433743
1629709745251,122992,292383,429853
1629709745261,121076,289022,425797
1629709745271,119168,285483,421662
1629709745281,117001,280544,416391
1629709745291,114349,274392,409676
1629709745301,112074,268826,403187
1629709745311,110436,264741,397889
1629709745321,109352,261844,394125
1629709745331,108638,260009,391611
1629709745341,108296,258989,390199
1629709745351,108087,258353,389428
1629709745361,108238,258303,389335
1629709745371,108797,258996,390236
1629709745381,109669,260377,392006
1629709745391,110531,261922,393782
1629709745401,111164,263473,395720
1629709745411,113386,269786,403504
1629709745421,121858,293232,423442
1629709745431,128314,310936,433055
1629709745441,129488,316157,434115
1629709745451,130151,319313,434450
1629709745461,130785,321452,434708
1629709745471,130853,322919,434016
1629709745481,130700,323771,433266
1629709745491,130380,323293,431791
1629709745501,128867,319230,427964
1629709745511,126712,313286,423524
1629709745521,124871,308331,419787
1629709745531,123497,304511,416660
1629709745541,122186,300827,413773
1629709745551,120737,296413,410819
1629709745561,119232,291732,407753
1629709745571,117672,287186,404847
1629709745581,116328,283407,402405
1629709745591,115099,279928,400131
1629709745601,114006,276915,397828
1629709745611,113352,275162,396444
1629709745621,113090,274417,395872
1629709745631,112902,273838,395218
1629709745641,112561,272779,393923
1629709745651,111953,271059,391898
1629709745661,111408,269544,390135
1629709745671,111081,268710,388812
1629709745681,111151,269018,388453
1629709745691,111715,270774,389364
1629709745701,112627,273467,391245
1629709745711,113087,274826,392103
1629709745721,112830,274021,391463
1629709745731,112697,273819,391008
1629709745741,113046,275273,391692
1629709745751,113937,278488,393511
1629709745761,115712,284666,397390
1629709745771,118277,293567,402444
1629709745781,119559,298240,404375
1629709745791,120150,301005,405527
1629709745801,121463,306604,408282
1629709745811,122706,312250,410741
1629709745821,123597,317230,412447
1629709745831,124415,322249,414172
1629709745841,124890,325317,415257
1629709745851,125112,326910,415811
1629709745861,125126,327310,416096
1629709745871,124951,326691,415913
1629709745881,124639,325028,415486
1629709745891,124113,322328,414885
1629709745901,123342,318224,413783
1629709745911,122342,313265,412255
1629709745921,121027,307365,409963
1629709745931,119595,301531,407076
1629709745941,118282,296907,404355
1629709745951,117390,293750,402108
1629709745961,116751,291660,400615
1629709745971,116390,290364,399860
1629709745981,116306,289935,399794
1629709745991,116331,290083,399569
1629709746001,116561,291413,399196
1629709746011,117193,294393,399927
1629709746021,118274,298801,401839
1629709746031,119771,305256,405540
1629709746041,124032,325682,414936
1629709746051,124306,333378,419278
1629709746061,124235,335506,422566
1629709746071,123659,337217,419736
1629709746081,120088,333551,410813
1629709746091,115672,326133,405726
1629709746101,110498,311296,402440
1629709746111,105650,298031,394713
1629709746121,101639,289525,382402
1629709746131,98065,282719,371786
1629709746141,95109,276974,363366
1629709746151,93032,272993,358206
1629709746161,92037,270990,356004
1629709746171,91330,269428,354315
1629709746181,90153,266832,350667
1629709746191,89162,264306,347051
1629709746201,89647,263923,346541
1629709746211,90357,264064,347260
1629709746221,91196,264357,348714
1629709746231,91674,264131,349657
1629709746241,91908,263826,350173
1629709746251,92131,263666,350733
1629709746261,92426,263709,351699
1629709746271,92791,263832,352688
1629709746281,93064,263913,353370
1629709746291,93265,263982,354006
1629709746301,93531,264144,354828
1629709746311,93740,264388,355344
1629709746321,93525,264494,354510
1629709746331,92933,264144,352756
1629709746341,92229,263535,351185
1629709746351,92168,263557,351394
1629709746361,92702,264212,352852
1629709746371,92937,264510,353278
1629709746381,92600,263893,352272
1629709746391,92138,263162,350923
1629709746401,91499,262329,349187
1629709746411,90292,261074,346695
1629709746421,89698,260544,346039
1629709746431,89796,260563,346077
1629709746441,89543,260115,345346
1629709746451,89600,260225,345618
1629709746461,89502,260184,345436
1629709746471,89219,259784,344877
1629709746481,89028,259576,344594
1629709746491,88836,259407,344326
1629709746501,88287,258709,343216
1629709746511,87575,257907,342190
1629709746521,86867,256927,341070
1629709746531,86464,256305,340413
1629709746541,86327,255941,340014
1629709746551,86589,256102,340190
1629709746561,87135,256610,340864
1629709746571,87851,257267,341800
1629709746581,88638,258158,343165
1629709746591,89264,258720,344261
1629709746601,89698,259118,345077
1629709746611,90176,259658,346155
1629709746621,90675,260193,347271
1629709746631,91029,260591,348042
1629709746641,91051,260529,347892
1629709746651,90040,259380,345383
1629709746661,88555,257574,342407
1629709746671,87023,255614,339912
1629709746681,84882,253465,338513
1629709746691,85466,258808,349464
1629709746701,89545,268484,362358
1629709746711,83387,253877,345036
1629709746721,82159,249927,339104
1629709746731,80521,246315,335422
1629709746741,80113,245187,334113
1629709746751,78544,241062,328760
1629709746761,76131,234705,320835
1629709746771,73926,228944,313436
1629709746781,71661,223020,305997
1629709746791,69389,216847,298429
1629709746801,67631,212477,292990
1629709746811,66600,209918,289923
1629709746821,65901,208239,287749
1629709746831,65278,206569,285581
1629709746841,64309,203845,282040
1629709746851,63020,200343,277385
1629709746861,61920,197254,273357
1629709746871,61129,194937,270183
1629709746881,60446,192955,267480
1629709746891,59953,191505,265500
1629709746901,59790,190984,264769
1629709746911,59716,190727,264276
1629709746921,59611,190374,263735
1629709746931,59495,190060,263295
1629709746941,59425,189905,263076
1629709746951,59449,190088,263392
1629709746961,59604,190760,264380
1629709746971,59838,191625,265610
1629709746981,59971,192100,266227
1629709746991,60032,192291,266385
1629709747001,60048,192276,266325
1629709747011,59936,192219,266310
1629709747021,59861,192139,266247
1629709747031,59565,191589,265506
1629709747041,59183,190954,264727
1629709747051,58905,190793,264542
1629709747061,58643,190287,263846
1629709747071,58250,189624,262944
1629709747081,58374,190237,263485
1629709747091,59833,194261,268716
1629709747101,62752,201616,277982
1629709747111,64223,204431,281067
1629709747121,64059,203205,278973
1629709747131,62457,198615,272526
1629709747141,60244,192466,264113
1629709747151,57656,185513,254651
1629709747161,54987,178354,245760
1629709747171,52766,172157,236996
1629709747181,50708,166724,229752
1629709747191,49219,163038,224657
1629709747201,48362,160750,221572
1629709747211,47711,158986,219264
1629709747221,47554,158691,219064
1629709747231,47639,159041,219566
1629709747241,47742,159351,220048
1629709747251,47875,159778,220607
1629709747261,47921,159931,220790
1629709747271,48160,160657,221916
1629709747281,48804,162532,224657
1629709747291,49411,164203,226818
1629709747301,49328,163870,226149
1629709747311,48959,162798,224668
1629709747321,51213,168804,233288
1629709747331,55858,180197,249259
1629709747341,58949,187041,258293
1629709747351,59188,186371,256801
1629709747361,57237,181133,249108
1629709747371,55784,177624,244449
1629709747381,55532,177033,243761
1629709747391,55136,175836,241868
1629709747401,53786,172201,236603
1629709747411,51979,167587,230040
1629709747421,50227,163202,223869
1629709747431,48968,160092,219579
1629709747441,48264,158298,217239
1629709747451,47665,156677,214940
1629709747461,46790,154342,211610
1629709747471,45567,151313,207112
1629709747481,44237,147857,202333
1629709747491,42826,144148,197229
1629709747501,41633,141153,193072
1629709747511,40812,139091,190178
1629709747521,40442,137884,188135
1629709747531,39944,136647,186416
1629709747541,39798,136280,185868
1629709747551,39781,136257,185766
1629709747561,39880,136531,186145
1629709747571,40158,137281,187272
1629709747581,40730,138756,189485
1629709747591,41779,141404,193493
1629709747601,43259,145244,198961
1629709747611,43837,146443,200616
1629709747621,44044,146507,201661
1629709747631,49421,159917,221237
1629709747641,54840,171491,238370
1629709747651,56106,173230,241363
1629709747661,55308,170220,235535
1629709747671,51240,160544,221880
1629709747681,50232,158255,219204
1629709747691,51225,160761,223727
1629709747701,53937,167033,233048
1629709747711,54323,167408,233440
1629709747721,53661,165275,230208
1629709747731,52298,161609,224984
1629709747741,50967,158055,219725
1629709747751,49829,155235,215839
1629709747761,49232,153679,213395
1629709747771,48607,151851,210750
1629709747781,47359,148521,205724
1629709747791,45538,143899,198759
1629709747801,43334,138331,190467
1629709747811,41087,132768,182121
1629709747821,38902,127187,174132
1629709747831,36584,121302,165835
1629709747841,34267,115451,157518
1629709747851,32283,110346,150644
1629709747861,31188,107634,147115
1629709747871,30895,107111,146252
1629709747881,30766,106816,145741
1629709747891,30549,106132,144730
1629709747901,30296,105425,143760
1629709747911,30461,106085,144808
1629709747921,31005,107476,146824
1629709747931,31341,107709,147478
1629709747941,31602,107658,147892
1629709747951,32376,108954,150131
1629709747961,31847,106584,146321
1629709747971,29445,100368,137461
1629709747981,28441,97976,134670
1629709747991,29279,99610,137139
1629709748001,29346,99254,137010
1629709748011,31322,103531,144259
1629709748021,33274,104795,145292
1629709748031,25777,83250,114688
1629709748041,16384,65536,81920
1629709748051,9743,32768,49152
1629709748061,1881,3276,16384
1629709748071,918,1457,2163
1629709748081,886,1383,1891
1629709748091,869,1360,1870
1629709748101,867,1375,1855
1629709748111,877,1547,1848
1629709748121,899,1778,1844
1629709748131,895,1881,1849
1629709748141,862,1430,1879
1629709748151,908,1456,2182
1629709748161,996,1591,2526
1629709748171,962,1504,2421
1629709748181,1009,1575,2726
1629709748191,1140,1665,3520
1629709748201,1352,1925,4778
1629709748211,1425,1850,5049
1629709748221,1808,2012,9641
1629709748231,39500,57750,57934
1629709748241,57609,90645,90651
1629709748251,60276,123230,123416
1629709748261,32768,98304,98304
1629709748271,872,65536,65536
1629709748281,890,32768,32768
1629709748291,1064,3138,2282
1629709748301,1361,4324,2745
1629709748311,1782,6917,3834
1629709748321,10752,47788,50041
1629709748331,57610,90547,90575
1629709748341,90346,123346,123377
1629709748351,120452,156096,156152
1629709748361,98304,131072,131072
1629709748371,65536,98304,98304
1629709748381,32768,65536,65536
1629709748391,882,32768,32768
1629709748401,880,1410,1882
1629709748411,872,1364,1860
1629709748421,878,1485,1877
1629709748431,888,1662,1893
1629709748441,885,1573,1904
1629709748451,896,1567,1883
1629709748461,875,1470,1879
1629709748471,889,1426,1881
1629709748481,879,1515,1873
1629709748491,921,1709,2003
1629709748501,935,1742,2084
1629709748511,917,1689,1973
1629709748521,884,1614,1878
1629709748531,882,1568,1881
1629709748541,893,1614,1903
1629709748551,900,1525,1937
1629709748561,883,1422,1908
1629709748571,876,1376,1868
1629709748581,874,1360,1846
1629709748591,872,1359,1847
1629709748601,869,1357,1848
1629709748611,871,1357,1842
1629709748621,866,1365,1844
1629709748631,877,1363,1851
1629709748641,865,1355,1845
1629709748651,876,1359,1852
1629709748661,880,1355,1856
1629709748671,865,1355,1844
1629709748681,873,1356,1847
1629709748691,875,1354,1843
1629709748701,864,1367,1853
1629709748711,877,1362,1855
1629709748721,890,1368,1877
1629709748731,891,1353,1874
1629709748741,888,1352,1873
1629709748751,883,1358,1869
1629709748761,886,1366,1877
1629709748771,892,1368,1867
1629709748781,878,1357,1877
1629709748791,902,1389,1901
1629709748801,1206,2020,3411
1629709748811,940,1489,1916
1629709748821,1006,1487,2104
1629709748831,1583,2528,4325
1629709748841,3333,8259,10786
1629709748851,1275,2172,2473
1629709748861,1014,1505,2081
1629709748871,947,1416,1955
1629709748881,878,1378,1868
1629709748891,880,1382,1867
1629709748901,947,1584,2031
1629709748911,946,1462,1992
1629709748921,887,1370,1904
1629709748931,871,1356,1859
1629709748941,896,1367,1900
1629709748951,926,1384,1918
1629709748961,922,1376,1923
1629709748971,887,1368,1865
1629709748981,857,1368,1866
1629709748991,972,1487,2082
1629709749001,1286,1990,3005
1629709749011,1445,2314,3452
1629709749021,1287,2033,2555
1629709749031,872,1361,1871
1629709749041,1002,1532,2055
1629709749051,884,1385,1875
1629709749061,876,1379,1864
1629709749071,892,1411,1889
1629709749081,1001,1729,2012
1629709749091,1119,1835,3388
1629709749101,1095,1815,2140
1629709749111,1283,2382,2482
1629709749121,1839,3627,3398
1629709749131,1971,4095,3732
1629709749141,2654,5674,4674
1629709749151,1616,2868,3174
1629709749161,1172,1375,1677
1629709749171,2607,5950,3871
1629709749181,3936,8449,7161
1629709749191,6492,14453,13031
1629709749201,2648,5369,4118
1629709749211,1227,1850,2125
1629709749221,1120,1502,2249
1629709749231,1640,1771,4084
1629709749241,1593,3217,3229
1629709749251,3890,8145,8690
1629709749261,4409,9238,7902
1629709749271,1860,3218,3459
1629709749281,3573,8813,6433
1629709749291,24015,56293,43140
1629709749301,57740,90636,74302
1629709749311,90455,123337,106998
1629709749321,65536,98304,81920
1629709749331,32768,65536,49152
1629709749341,6840,32768,16384
1629709749351,21300,51539,45978
1629709749361,57584,90517,74304
1629709749371,79246,123244,106945
1629709749381,101611,155984,139930
1629709749391,99744,188617,172424
1629709749401,81920,163840,147456
1629709749411,50099,131072,114688
1629709749421,47662,98304,81920
1629709749431,32768,65536,49152
1629709749441,17291,35716,37454
1629709749451,35712,73811,72467
1629709749461,39049,80166,75867
1629709749471,33541,72807,61430
1629709749481,29871,68617,53833
1629709749491,19652,49152,37648
1629709749501,25243,60824,48668
1629709749511,32505,71427,56290
1629709749521,21749,50343,39905
1629709749531,23179,55000,42805
1629709749541,34652,78712,65951
1629709749551,55727,106716,106273
1629709749561,69923,139481,138215
1629709749571,90176,172238,172256
1629709749581,102685,205007,205021
1629709749591,106525,237428,211161
1629709749601,85792,212992,180224
1629709749611,68753,180224,147456
1629709749621,61571,147456,114688
1629709749631,53803,114688,96978
1629709749641,47065,98422,83846
1629709749651,44540,94543,81251
1629709749661,49480,105134,91372
1629709749671,56084,120878,104446
1629709749681,62226,136729,118508
1629709749691,73463,168760,146562
1629709749701,90175,204847,184364
1629709749711,99648,226846,199883
1629709749721,95322,216847,191652
1629709749731,91695,208488,179365
1629709749741,79817,196608,163840
1629709749751,66629,163840,131072
1629709749761,59049,131072,107931
1629709749771,55249,117188,100869
1629709749781,53501,112870,97548
1629709749791,54376,115072,99941
1629709749801,59281,128298,111529
1629709749811,67926,152763,131117
1629709749821,77915,179034,153979
1629709749831,86357,198344,172091
1629709749841,94207,215561,190156
1629709749851,97356,221756,194608
1629709749861,92684,210655,182675
1629709749871,83154,196608,163840
1629709749881,75154,169620,143553
1629709749891,67730,149864,131072
1629709749901,61691,132832,113848
1629709749911,58858,125959,108736
1629709749921,59698,128861,111269
1629709749931,62899,137758,118499
1629709749941,67495,150928,129645
1629709749951,74600,170600,146815
1629709749961,84140,193676,167491
1629709749971,90992,208357,181645
1629709749981,92312,210690,184317
1629709749991,91167,208101,181072
1629709750001,86982,198475,170020
1629709750011,79146,180224,152283
1629709750021,71126,159010,134943
1629709750031,66168,147456,124159
1629709750041,63470,138485,118439
1629709750051,62460,135823,116690
1629709750061,63635,139512,120171
1629709750071,67918,152082,130470
1629709750081,74076,168977,144682
1629709750091,80467,184571,159062
1629709750101,86170,197771,171668
1629709750111,90294,206524,179871
1629709750121,90453,206516,178822
1629709750131,86172,196469,168744
1629709750141,80306,182681,155713
1629709750151,74590,168377,147456
1629709750161,69682,155344,132043
1629709750171,65919,145029,123980
1629709750181,64763,142035,121850
1629709750191,66099,146268,125394
1629709750201,68786,153939,131887
1629709750211,72960,165495,141912
1629709750221,78667,180404,155058
1629709750231,84382,193615,167258
1629709750241,87557,200322,173357
1629709750251,87736,200373,173431
1629709750261,85890,195981,168493
1629709750271,81986,186683,159158
1629709750281,76373,172715,147456
1629709750291,71677,163840,136635
1629709750301,68749,152990,130345
1629709750311,67365,149357,127547
1629709750321,67518,149986,128334
1629709750331,69575,156045,133595
1629709750341,73442,166785,142721
1629709750351,77958,178397,152948
1629709750361,82070,187967,162070
1629709750371,85279,195262,168545
1629709750381,86546,197923,170674
1629709750391,85063,194193,166721
1629709750401,81481,185590,158521
1629709750411,77414,175588,149351
1629709750421,73668,165847,141006
1629709750431,70630,157935,134427
1629709750441,68956,153535,131205
1629709750451,69141,154539,131994
1629709750461,70848,159430,136180
1629709750471,73510,166730,142657
1629709750481,77255,176518,151284
1629709750491,81214,186064,160006
1629709750501,83959,192250,165561
1629709750511,84873,194120,167288
1629709750521,83976,191838,164823
1629709750531,81580,185940,159009
1629709750541,78030,177164,151016
1629709750551,74698,168649,143556
1629709750561,72186,162233,138074
1629709750571,70811,158628,135344
1629709750581,70613,158260,135241
1629709750591,71790,161705,138345
1629709750601,74298,168542,144229
1629709750611,77346,176493,151254
1629709750621,80338,183793,157881
1629709750631,82710,189336,162788
1629709750641,83846,191728,164889
1629709750651,83185,189961,163028
1629709750661,81113,184876,158170
1629709750671,78402,178222,152031
1629709750681,75592,171078,145676
1629709750691,73311,165216,140662
1629709750701,71937,161731,137834
1629709750711,71895,161724,138131
1629709750721,72907,164638,140734
1629709750731,74793,169732,145214
1629709750741,77328,176344,151124
1629709750751,79985,182891,156948
1629709750761,82035,187687,161150
1629709750771,82771,189225,162442
1629709750781,82358,188035,161235
1629709750791,80763,184105,157496
1629709750801,78492,178470,152292
1629709750811,76202,172663,147093
1629709750821,74275,167782,143023
1629709750831,73087,164861,140503
1629709750841,73078,164994,140647
1629709750851,73787,166993,142584
1629709750861,75294,171008,146154
1629709750871,77602,177035,151480
1629709750881,79672,182122,156043
1629709750891,81298,185885,159423
1629709750901,82011,187500,160820
1629709750911,81703,186586,159821
1629709750921,80481,183552,156827
1629709750931,78554,178711,152498
1629709750941,76529,173644,147985
1629709750951,75023,169848,144658
1629709750961,74050,167403,142663
1629709750971,73905,167147,142567
1629709750981,74616,169153,144404
1629709750991,76056,172973,147783
1629709751001,77737,177235,151615
1629709751011,79513,181620,155552
1629709751021,80849,184841,158500
1629709751031,81453,186105,159454
1629709751041,81199,185381,158718
1629709751051,79956,182278,155812
1629709751061,78552,178784,152560
1629709751071,76896,174641,148933
1629709751081,75443,170897,145646
1629709751091,74682,169054,144088
1629709751101,74649,169008,144201
1629709751111,75294,170966,145982
1629709751121,76544,174043,148632
1629709751131,78155,178254,152573
1629709751141,79331,181141,155140
1629709751151,80806,184680,158117
1629709751161,81017,185077,158556
1629709751171,80596,183921,157416
1629709751181,79867,182160,155710
1629709751191,78490,178716,152516
1629709751201,77108,175160,149334
1629709751211,75942,172316,146930
1629709751221,75330,170821,145673
1629709751231,75506,171286,146084
1629709751241,75931,172504,147331
1629709751251,76961,175199,149720
1629709751261,78353,178704,152842
1629709751271,79560,181696,155493
1629709751281,80351,183545,157213
1629709751291,80688,184251,157752
1629709751301,80495,183710,157151
1629709751311,79553,181325,154931
1629709751321,78364,178399,152315
1629709751331,77187,175446,149672
1629709751341,76411,173530,147970
1629709751351,75834,172115,146837
1629709751361,75912,172350,147090
1629709751371,76493,173968,148587
1629709751381,77476,176466,150801
1629709751391,78514,179128,153225
1629709751401,79411,181256,155070
1629709751411,80210,183169,156787
1629709751421,80375,183409,156943
1629709751431,80119,182866,156395
1629709751441,79309,180748,154355
1629709751451,78612,178985,152803
1629709751461,77548,176428,150583
1629709751471,76869,174681,148951
1629709751481,76520,173879,148409
1629709751491,76490,173870,148460
1629709751501,77139,175562,149895
1629709751511,77923,177606,151803
1629709751521,78778,179667,153625
1629709751531,79627,181732,155504
1629709751541,80171,183043,156650
1629709751551,80303,183295,156806
1629709751561,79966,182381,155963
1629709751571,79311,180810,154482
1629709751581,78555,178904,152748
1629709751591,77762,176901,150971
1629709751601,77176,175505,149779
1629709751611,76889,174871,149251
1629709751621,77096,175415,149744
1629709751631,77450,176362,150697
1629709751641,78164,178136,152276
1629709751651,78930,180099,154034
1629709751661,79620,181740,155481
1629709751671,80018,182689,156340
1629709751681,80059,182721,156349
1629709751691,79827,182119,155717
1629709751701,79210,180555,154281
1629709751711,78483,178654,152467
1629709751721,77944,177408,151395
1629709751731,77266,175760,150077
1629709751741,77273,175795,150088
1629709751751,77545,176536,150697
1629709751761,77916,177512,151645
1629709751771,78531,179026,153080
1629709751781,79290,181013,154780
1629709751791,79766,182084,155760
1629709751801,79880,182220,155930
1629709751811,79967,182538,156154
1629709751821,79685,181792,155369
1629709751831,79227,180565,154231
1629709751841,78407,178654,152591
1629709751851,77963,177481,151513
1629709751861,77811,177226,151279
1629709751871,77584,176564,150766
1629709751881,77816,177165,151356
1629709751891,78269,178408,152490
1629709751901,78871,179886,153760
1629709751911,79379,181077,154879
1629709751921,79710,181916,155682
1629709751931,80045,182700,156270
1629709751941,79946,182401,155980
1629709751951,79471,181220,154930
1629709751961,79012,180144,153939
1629709751971,78576,179040,152903
1629709751981,78165,177991,151985
1629709751991,77802,177146,151261
1629709752001,77892,177394,151539
1629709752011,78139,178059,152120
1629709752021,78584,179152,153087
1629709752031,78979,180184,154094
1629709752041,79460,181289,155023
1629709752051,79741,181983,155692
1629709752061,79814,182089,155729
1629709752071,79939,182440,156037
1629709752081,79483,181252,154912
1629709752091,79223,180585,154298
1629709752101,78587,179129,152996
1629709752111,78372,178479,152344
1629709752121,78119,177928,151990
1629709752131,78007,177688,151802
1629709752141,78411,178727,152720
1629709752151,78756,179581,153489
1629709752161,79138,180529,154342
1629709752171,79495,181388,155167
1629709752181,79890,182377,155996
1629709752191,79963,182497,156064
1629709752201,79811,182032,155670
1629709752211,79536,181346,155033
1629709752221,79222,180608,154342
1629709752231,78817,179581,153388
1629709752241,78487,178801,152740
1629709752251,78361,178549,152526
1629709752261,78444,178798,152720
1629709752271,78564,179096,153037
1629709752281,78903,179929,153836
1629709752291,79268,180848,154663
1629709752301,79668,181779,155434
1629709752311,79774,182071,155759
1629709752321,79878,182194,155809
1629709752331,79799,182069,155677
1629709752341,79531,181345,154973
1629709752351,79244,180709,154431
1629709752361,78774,179522,153349
1629709752371,78692,179302,153100
1629709752381,78418,178619,152613
1629709752391,78675,179347,153275
1629709752401,78717,179450,153263
1629709752411,79558,181485,155149
1629709752421,79293,181027,154953
1629709752431,79866,182132,155651
1629709752441,80175,183023,156524
1629709752451,79710,181810,155457
1629709752461,79879,182200,155738
1629709752471,79594,181601,155271
1629709752481,79296,180762,154393
1629709752491,78963,179980,153797
1629709752501,78723,179445,153325
1629709752511,78933,179890,153685
1629709752521,78978,180061,153863
1629709752531,79061,180280,154132
1629709752541,79438,181242,154962
1629709752551,79785,182075,155670
1629709752561,79933,182357,155974
1629709752571,79940,182382,156003
1629709752581,80017,182640,156176
1629709752591,79825,182163,155704
1629709752601,79499,181319,154976
1629709752611,79179,180577,154391
1629709752621,79084,180294,154021
1629709752631,79015,180156,153939
1629709752641,78851,179778,153652
1629709752651,79109,180413,154230
1629709752661,79313,180939,154698
1629709752671,79654,181681,155339
1629709752681,79695,181835,155519
1629709752691,79957,182480,156117
1629709752701,79931,182388,156024
1629709752711,80162,182978,156417
1629709752721,79774,182027,155723
1629709752731,79638,181618,155269
1629709752741,79600,181631,155276
1629709752751,79156,180483,154226
1629709752761,79152,180441,154203
1629709752771,79233,180761,154539
1629709752781,79402,181116,154783
1629709752791,79618,181620,155319
1629709752801,79663,181813,155511
1629709752811,79952,182513,156098
1629709752821,80117,182898,156441
1629709752831,80049,182680,156233
1629709752841,80034,182624,156210
1629709752851,79922,182368,155939
1629709752861,79760,181941,155514
1629709752871,79463,181226,154912
1629709752881,79379,180984,154689
1629709752891,79385,181058,154724
1629709752901,79306,180877,154606
1629709752911,79329,180941,154687
1629709752921,79547,181515,155207
1629709752931,79797,182124,155756
1629709752941,79915,182394,156022
1629709752951,79999,182619,156223
1629709752961,80087,182825,156356
1629709752971,80119,182866,156378
1629709752981,79905,182324,155900
1629709752991,79749,181957,155567
1629709753001,79723,181858,155463
1629709753011,79502,181361,155030
1629709753021,79265,180646,154394
1629709753031,79506,181359,155110
1629709753041,79585,181647,155349
1629709753051,79903,182202,155731
1629709753061,80020,182674,156358
1629709753071,80050,182814,156403
1629709753081,80407,183555,156942
1629709753091,80117,182828,156423
1629709753101,79970,182491,156110
1629709753111,80151,182933,156413
1629709753121,80087,182715,156226
1629709753131,79676,181695,155353
1629709753141,79661,181699,155386
1629709753151,79706,181946,155566
1629709753161,79814,182068,155588
1629709753171,79872,182199,155835
1629709753181,79975,182498,156134
1629709753191,80311,183325,156780
1629709753201,80350,183409,156904
1629709753211,80266,183182,156783
1629709753221,80344,183432,156921
1629709753231,80382,183540,156949
1629709753241,80059,182671,156217
1629709753251,79925,182300,155922
1629709753261,79886,182324,155879
1629709753271,79909,182310,155850
1629709753281,79782,181990,155625
1629709753291,79909,182310,155944
1629709753301,80116,182874,156448
1629709753311,80225,183142,156628
1629709753321,80244,183196,156677
1629709753331,80276,183223,156732
1629709753341,80501,183784,157242
1629709753351,80430,183613,157044
1629709753361,80470,183560,156948
1629709753371,80367,183429,156971
1629709753381,80283,183189,156618
1629709753391,80290,183241,156687
1629709753401,80004,182558,156186
1629709753411,80055,182712,156304
1629709753421,80311,183415,156865
1629709753431,80329,183395,156889
1629709753441,80367,183451,156957
1629709753451,80539,183907,157408
1629709753461,80638,184100,157522
1629709753471,80697,184280,157672
1629709753481,80587,183957,157384
1629709753491,80641,184106,157489
1629709753501,80534,183806,157229
1629709753511,80433,183514,156978
1629709753521,80292,183256,156794
1629709753531,80358,183412,156878
1629709753541,80373,183448,156907
1629709753551,80345,183355,156871
1629709753561,80394,183523,157011
1629709753571,80597,184000,157415
1629709753581,80659,184164,157624
1629709753591,80644,184097,157558
1629709753601,80749,184384,157804
1629709753611,80764,184411,157782
1629709753621,80679,184194,157593
1629709753631,80565,183886,157320
1629709753641,80588,183931,157353
1629709753651,80471,183710,157139
1629709753661,80255,183120,156641
1629709753671,80507,183770,157256
1629709753681,80575,184042,157494
1629709753691,80664,184036,157417
1629709753701,80855,184562,157975
1629709753711,80899,184841,158195
1629709753721,80991,184941,158229
1629709753731,80854,184624,158042
1629709753741,80757,184413,157862
1629709753751,80895,184724,158071
1629709753761,80795,184496,157816
1629709753771,80591,183935,157413
1629709753781,80534,183853,157338
1629709753791,80730,184338,157693
1629709753801,80695,184237,157627
1629709753811,80715,184221,157680
1629709753821,80888,184647,158073
1629709753831,81042,185053,158379
1629709753841,81061,185054,158418
1629709753851,80992,184917,158301
1629709753861,81084,185166,158500
1629709753871,81036,185035,158332
1629709753881,80851,184543,157935
1629709753891,80736,184322,157761
1629709753901,80786,184431,157806
1629709753911,80772,184415,157789
1629709753921,80712,184205,157654
1629709753931,80810,184463,157910
1629709753941,80937,184828,158179
1629709753951,81094,185180,158510
1629709753961,80974,184918,158308
1629709753971,81030,185058,158458
1629709753981,81141,185220,158500
1629709753991,81383,185935,159207
1629709754001,80931,184791,158293
1629709754011,81147,185252,158479
1629709754021,81206,185514,158804
1629709754031,80963,184868,158245
1629709754041,81075,185040,158405
1629709754051,81112,185308,158657
1629709754061,81180,185408,158704
1629709754071,81281,185615,158931
1629709754081,81138,185348,158675
1629709754091,81334,185801,159048
1629709754101,81356,185854,159111
1629709754111,81302,185670,158956
1629709754121,81301,185705,159016
1629709754131,81298,185694,158962
1629709754141,81298,185639,158899
1629709754151,81205,185424,158765
1629709754161,81196,185411,158725
1629709754171,81292,185653,158933
1629709754181,81259,185532,158828
1629709754191,81257,185547,158852
1629709754201,81283,185638,158987
1629709754211,81392,185906,159153
1629709754221,81366,185870,159147
1629709754231,81365,185834,159103
1629709754241,81445,186060,159339
1629709754251,81432,185953,159232
1629709754261,81419,185961,159245
1629709754271,81317,185702,158995
1629709754281,81479,186114,159295
1629709754291,81267,185587,158879
1629709754301,81296,185499,158717
1629709754311,81228,185526,158897
1629709754321,81650,186471,159616
1629709754331,81479,186145,159408
1629709754341,81712,186441,159594
1629709754351,81909,187286,160521
1629709754361,81798,186892,160020
1629709754371,81894,187049,160152
1629709754381,81514,186243,159629
1629709754391,81718,186694,159825
1629709754401,81875,187085,160188
1629709754411,81524,186204,159406
1629709754421,81405,185913,159250
1629709754431,81460,186113,159379
1629709754441,81552,186249,159423
1629709754451,81487,186110,159355
1629709754461,81531,186213,159530
1629709754471,81829,186930,160152
1629709754481,81904,187104,160266
1629709754491,81836,186865,160163
1629709754501,81923,187193,160402
1629709754511,82112,187553,160642
1629709754521,81950,187243,160380
1629709754531,81698,186572,159794
1629709754541,81824,186926,160108
1629709754551,81732,186691,159852
1629709754561,81672,186537,159717
1629709754571,81518,186218,159561
1629709754581,81753,186744,159930
1629709754591,81948,187231,160357
1629709754601,81781,186838,160030
1629709754611,81834,186966,160245
1629709754621,82063,187413,160578
1629709754631,82333,188109,161152
1629709754641,82070,187441,160606
1629709754651,82196,187802,160930
1629709754661,82112,187610,160706
1629709754671,82095,187451,160519
1629709754681,81826,186884,160129
1629709754691,81828,186945,160145
1629709754701,82053,187449,160511
1629709754711,81986,187299,160461
1629709754721,81932,187101,160339
1629709754731,82159,187730,160868
1629709754741,82308,188112,161137
1629709754751,82315,188061,161129
1629709754761,82251,187931,161098
1629709754771,82354,188167,161251
1629709754781,82414,188270,161304
1629709754791,82166,187638,160793
1629709754801,82143,187606,160758
1629709754811,82201,187781,160866
1629709754821,82149,187659,160753
1629709754831,81986,187279,160443
1629709754841,82092,187559,160712
1629709754851,82243,187903,160998
1629709754861,82314,188034,161115
1629709754871,82241,187916,161102
1629709754881,82419,188327,161403
1629709754891,82555,188654,161684
1629709754901,82427,188216,161392
1629709754911,82397,188153,161380
1629709754921,82373,188122,161309
1629709754931,82376,188186,161332
1629709754941,82115,187562,160803
1629709754951,81943,187013,160358
1629709754961,82441,188304,161522
1629709754971,82411,188251,161384
1629709754981,82803,189042,162159
1629709754991,82711,188954,162305
1629709755001,83070,189758,162754
1629709755011,83228,190155,163107
1629709755021,82785,189086,162265
1629709755031,82860,189308,162434
1629709755041,82915,189416,162481
1629709755051,82675,188762,161840
1629709755061,82370,188116,161331
1629709755071,82364,188128,161370
1629709755081,82628,188783,161850
1629709755091,82599,188663,161789
1629709755101,82702,188890,162083
1629709755111,82980,189538,162673
1629709755121,83212,190098,163093
1629709755131,83159,189917,162999
1629709755141,83100,189814,162954
1629709755151,83219,190121,163144
1629709755161,83083,189767,162806
1629709755171,82749,189013,162152
1629709755181,82636,188749,161949
1629709755191,82731,188913,162026
1629709755201,82710,188866,161952
1629709755211,82614,188633,161855
1629709755221,82827,189183,162373
1629709755231,83078,189794,162874
1629709755241,83181,189959,163043
1629709755251,83163,189920,163069
1629709755261,83252,190163,163231
1629709755271,83312,190376,163428
1629709755281,83214,190069,163097
1629709755291,83182,189993,163042
1629709755301,83119,189801,162901
1629709755311,83021,189609,162658
1629709755321,82935,189438,162479
1629709755331,82812,189174,162330
1629709755341,82872,189381,162563
1629709755351,83036,189735,162890
1629709755361,83170,190021,163117
1629709755371,83355,190463,163519
1629709755381,83644,191188,164204
1629709755391,83797,191513,164483
1629709755401,83993,191970,164908
1629709755411,83971,191901,164872
1629709755421,83972,191927,164822
1629709755431,83858,191584,164527
1629709755441,83637,191017,163993
1629709755451,83488,190706,163679
1629709755461,83430,190534,163539
1629709755471,83329,190298,163312
1629709755481,83303,190272,163345
1629709755491,83394,190521,163585
1629709755501,83631,191066,164076
1629709755511,83737,191306,164334
1629709755521,83915,191673,164654
1629709755531,84044,192003,164970
1629709755541,84055,192055,164959
1629709755551,84025,191972,164905
1629709755561,83843,191522,164457
1629709755571,83849,191559,164508
1629709755581,83559,190853,163841
1629709755591,83462,190563,163543
1629709755601,83335,190424,163590
1629709755611,83559,190833,163838
1629709755621,83784,191438,164383
1629709755631,83838,191529,164575
1629709755641,84079,192130,165104
1629709755651,84267,192623,165497
1629709755661,84270,192559,165490
1629709755671,84095,192192,165199
1629709755681,84259,192577,165474
1629709755691,84156,192308,165200
1629709755701,83955,191756,164662
1629709755711,83763,191396,164399
1629709755721,83808,191551,164498
1629709755731,83873,191694,164665
1629709755741,84167,192148,165971
1629709755751,91359,199555,183195
1629709755761,122392,221510,221560
1629709755771,140461,254299,254161
1629709755781,114688,229376,229376
1629709755791,133218,254132,254164
1629709755801,114688,237088,229376
1629709755811,126647,270517,253993
1629709755821,125965,280143,253216
1629709755831,111971,252377,229376
1629709755841,117568,258159,227481
1629709755851,110781,248322,219995
1629709755861,120385,270929,244761
1629709755871,124294,277437,250869
1629709755881,121045,271081,246384
1629709755891,126034,280564,255847
1629709755901,113744,254141,229376
1629709755911,98304,245760,196608
1629709755921,105648,237636,215772
1629709755931,122905,270530,254158
1629709755941,117194,246056,229376
1629709755951,137813,286903,254159
1629709755961,131569,290624,267773
1629709755971,123660,274972,253879
1629709755981,128750,285780,264542
1629709755991,125822,274197,249154
1629709756001,106520,262144,229376
1629709756011,98899,229376,196608
1629709756021,97332,214870,189268
1629709756031,100200,221693,196345
1629709756041,106333,235237,210184
1629709756051,113143,250123,226482
1629709756061,117460,259439,237524
1629709756071,120207,264727,243295
1629709756081,117176,257625,234250
1629709756091,115093,253553,229862
1629709756101,114122,251770,228008
1629709756111,117103,258490,235951
1629709756121,119238,264091,243487
1629709756131,113833,252657,230441
1629709756141,83300,229376,212992
1629709756151,65536,196608,180224
1629709756161,32768,163840,147456
1629709756171,12952,131072,114688
1629709756181,7858,98304,81920
1629709756191,6116,65536,49152
1629709756201,6117,32768,16384
1629709756211,8521,20133,13509
1629709756221,17404,44495,28954
1629709756231,45487,73950,57566
1629709756241,68452,106842,90511
1629709756251,81577,139621,123263
1629709756261,85736,172224,155856
1629709756271,75001,168248,145598
1629709756281,49152,147456,131072
1629709756291,22100,114688,98304
1629709756301,7418,81920,65536
1629709756311,6052,49152,32768
1629709756321,5230,16384,7288
1629709756331,2249,4111,3513
1629709756341,1304,2017,2422
1629709756351,1211,1815,2304
1629709756361,1083,1552,2144
1629709756371,1062,1492,2150
1629709756381,1078,1543,2236
1629709756391,1100,1611,2341
1629709756401,1282,2097,2966
1629709756411,1573,2613,3686
1629709756421,1538,2499,3633
1629709756431,1924,3356,4891
1629709756441,2530,4575,6312
1629709756451,2287,4249,5432
1629709756461,2120,4160,4982
1629709756471,2271,4449,5300
1629709756481,2000,3576,4647
1629709756491,1664,2767,3899
1629709756501,1466,2323,3306
1629709756511,1249,1882,2690
1629709756521,1130,1628,2364
1629709756531,1084,1533,2214
1629709756541,1055,1481,2127
1629709756551,1051,1471,2087
1629709756561,1039,1468,2084
1629709756571,1035,1461,2083
1629709756581,1027,1452,2086
1629709756591,1032,1455,2065
1629709756601,1031,1448,2069
1629709756611,1030,1446,2066
1629709756621,1025,1445,2071
1629709756631,1030,1448,2080
1629709756641,1035,1451,2088
1629709756651,1035,1447,2081
1629709756661,1032,1440,2067
1629709756671,1028,1439,2060
1629709756681,1027,1440,2045
1629709756691,1025,1440,2060
1629709756701,1028,1436,2065
1629709756711,1040,1442,2144
1629709756721,1118,1611,2516
1629709756731,1200,1811,2738
1629709756741,1200,1846,2726
1629709756751,1197,1837,2664
1629709756761,1129,1682,2409
1629709756771,1079,1528,2229
1629709756781,1073,1526,2228
1629709756791,1076,1526,2216
1629709756801,1056,1482,2156
1629709756811,1045,1467,2122
1629709756821,1050,1478,2142
1629709756831,1055,1476,2134
1629709756841,1033,1444,2087
1629709756851,1033,1447,2090
1629709756861,1044,1466,2138
1629709756871,1034,1445,2090
1629709756881,1031,1442,2077
1629709756891,1037,1430,2112
1629709756901,1038,1441,2113
1629709756911,1044,1438,2131
1629709756921,1052,1456,2188
1629709756931,1066,1489,2313
1629709756941,1105,1605,2503
1629709756951,1157,1701,2737
1629709756961,1201,1738,2864
1629709756971,1153,1638,2632
1629709756981,1065,1503,2300
1629709756991,1039,1453,2177
1629709757001,1040,1456,2178
1629709757011,1050,1474,2240
1629709757021,1065,1480,2286
1629709757031,1072,1482,2292
1629709757041,1065,1460,2242
1629709757051,1058,1456,2204
1629709757061,1055,1460,2180
1629709757071,1045,1457,2169
1629709757081,1045,1452,2176
1629709757091,1053,1472,2195
1629709757101,1069,1491,2231
1629709757111,1073,1527,2284
1629709757121,1079,1567,2371
1629709757131,1101,1626,2449
1629709757141,1143,1721,2621
1629709757151,1226,1853,2914
1629709757161,1314,2016,3244
1629709757171,1396,2170,3602
1629709757181,1573,2519,4273
1629709757191,1720,2802,4798
1629709757201,1752,2863,4946
1629709757211,1762,2868,5045
1629709757221,1661,2631,4654
1629709757231,1439,2162,3838
1629709757241,1239,1761,3095
1629709757251,1136,1542,2633
1629709757261,1066,1459,2343
1629709757271,1043,1447,2213
1629709757281,1029,1442,2169
1629709757291,1036,1459,2191
1629709757301,1024,1430,2110
1629709757311,1014,1412,2057
1629709757321,1014,1400,2041
1629709757331,1011,1417,2032
1629709757341,1013,1412,2033
1629709757351,1011,1407,2032
1629709757361,1016,1404,2024
1629709757371,995,1422,2030
1629709757381,1017,1406,2024
1629709757391,1005,1412,2034
1629709757401,1008,1432,2054
1629709757411,1019,1405,2055
1629709757421,1021,1415,2079
1629709757431,1031,1422,2115
1629709757441,1044,1429,2177
1629709757451,1057,1455,2259
1629709757461,1075,1493,2354
1629709757471,1088,1536,2409
1629709757481,1086,1561,2431
1629709757491,1119,1628,2623
1629709757501,1194,1749,2905
1629709757511,1222,1795,3011
1629709757521,1281,1888,3192
1629709757531,1255,1830,3026
1629709757541,1155,1677,2678
1629709757551,1114,1602,2514
1629709757561,1093,1566,2425
1629709757571,1064,1514,2321
1629709757581,1050,1476,2239
1629709757591,1046,1451,2169
1629709757601,1025,1435,2102
1629709757611,1019,1417,2067
1629709757621,1014,1421,2043
1629709757631,1015,1414,2047
1629709757641,1015,1416,2049
1629709757651,1014,1424,2051
1629709757661,1011,1416,2035
1629709757671,1010,1417,2031
1629709757681,1009,1413,2035
1629709757691,1007,1407,2040
1629709757701,1020,1412,2077
1629709757711,1021,1431,2102
1629709757721,1043,1427,2149
1629709757731,1037,1414,2148
1629709757741,1028,1413,2114
1629709757751,1020,1425,2118
1629709757761,1029,1420,2162
1629709757771,1043,1430,2222
1629709757781,1047,1428,2246
1629709757791,1037,1421,2204
1629709757801,1024,1425,2157
1629709757811,1027,1416,2167
1629709757821,1043,1446,2253
1629709757831,1076,1457,2360
1629709757841,1098,1448,2437
1629709757851,1138,1484,2523
1629709757861,1152,1480,2522
1629709757871,1096,1455,2350
1629709757881,1050,1430,2197
1629709757891,1029,1426,2166
1629709757901,1039,1414,2158
1629709757911,1041,1424,2165
1629709757921,1047,1421,2158
1629709757931,1028,1435,2129
1629709757941,1030,1430,2114
1629709757951,1023,1424,2092
1629709757961,1021,1411,2088
1629709757971,1025,1417,2106
1629709757981,1036,1430,2135
1629709757991,1029,1426,2135
1629709758001,1023,1417,2103
1629709758011,1017,1422,2098
1629709758021,1032,1420,2132
1629709758031,1045,1468,2242
1629709758041,1068,1470,2330
1629709758051,1075,1473,2334
1629709758061,1040,1433,2220
1629709758071,1019,1400,2132
1629709758081,1022,1400,2149
1629709758091,1030,1425,2245
1629709758101,1051,1465,2329
1629709758111,1053,1485,2318
1629709758121,1047,1450,2249
1629709758131,1037,1459,2208
1629709758141,1042,1459,2228
1629709758151,1062,1524,2262
1629709758161,1055,1508,2239
1629709758171,1041,1503,2166
1629709758181,1045,1609,2129
1629709758191,1059,1808,2130
1629709758201,1106,2017,2139
1629709758211,1130,2210,2169
1629709758221,1157,2498,2235
1629709758231,1261,3077,2466
1629709758241,1446,4232,3188
1629709758251,1781,6121,4725
1629709758261,2172,8226,6216
1629709758271,2519,9664,6357
1629709758281,2728,10785,6616
1629709758291,3189,13041,8392
1629709758301,3789,16244,11549
1629709758311,4340,18887,14687
1629709758321,3748,15827,12514
1629709758331,2653,10262,8030
1629709758341,1929,6546,5457
1629709758351,1575,4753,4615
1629709758361,1401,3902,4222
1629709758371,1264,3143,3588
1629709758381,1186,2596,3077
1629709758391,1135,2280,2768
1629709758401,1092,2030,2541
1629709758411,1082,1985,2496
1629709758421,1091,2075,2551
1629709758431,1105,2159,2580
1629709758441,1128,2286,2678
1629709758451,1141,2408,2805
1629709758461,1172,2634,3033
1629709758471,1249,3186,3559
1629709758481,1404,4112,4456
1629709758491,1655,5263,5955
1629709758501,1959,6325,7717
1629709758511,2309,7835,10080
1629709758521,3022,11115,15536
1629709758531,3788,14521,19880
1629709758541,4465,18434,23647
1629709758551,5848,25037,30587
1629709758561,7374,31236,38984
1629709758571,10161,44083,54623
1629709758581,15572,63101,77816
1629709758591,21452,81687,102509
1629709758601,31456,122919,139480
1629709758611,43770,155848,172415
1629709758621,50980,188612,205010
1629709758631,28631,163840,180224
1629709758641,16384,131072,147456
1629709758651,7497,98304,114688
1629709758661,27145,119015,132005
1629709758671,38177,155835,172243
1629709758681,26437,131072,147456
1629709758691,22123,114547,114688
1629709758701,27792,155692,139317
1629709758711,30792,188770,172079
1629709758721,30858,221347,180572
1629709758731,30793,210416,174999
1629709758741,31677,196608,159374
1629709758751,32882,185853,164772
1629709758761,32281,186704,164633
1629709758771,30630,165865,148852
1629709758781,26903,147456,131072
1629709758791,24721,118201,114439
1629709758801,24000,114070,112116
1629709758811,20876,98304,98304
1629709758821,15964,65536,70167
1629709758831,13272,52837,60071
1629709758841,11901,49817,54400
1629709758851,9922,43236,45336
1629709758861,8317,36932,38095
1629709758871,7622,34867,35306
1629709758881,7660,36246,35619
1629709758891,8173,39334,38414
1629709758901,9164,43289,43359
1629709758911,10532,47272,49672
1629709758921,11724,49704,54703
1629709758931,11799,47635,54414
1629709758941,10646,41878,48961
1629709758951,9062,35944,41922
1629709758961,7654,31339,35375
1629709758971,6337,26662,29176
1629709758981,5378,22946,24715
1629709758991,4829,21068,22161
1629709759001,4560,20143,21302
1629709759011,4459,19671,20951
1629709759021,4480,19741,21331
1629709759031,4674,20858,22662
1629709759041,5047,22478,24679
1629709759051,5554,24672,27408
1629709759061,6020,26377,29786
1629709759071,6592,28819,32719
1629709759081,7379,32851,36277
1629709759091,7861,36042,37368
1629709759101,7894,37409,36448
1629709759111,7453,35108,34227
1629709759121,6385,28755,30056
1629709759131,5494,24541,25842
1629709759141,4817,21700,22101
1629709759151,4149,18680,18683
1629709759161,3644,16449,16087
1629709759171,3260,14768,13753
1629709759181,2971,13501,12018
1629709759191,2840,12931,11314
1629709759201,2808,12804,10980
1629709759211,2759,12581,10439
1629709759221,2778,12780,10563
1629709759231,2918,13599,11632
1629709759241,3085,14490,12794
1629709759251,3188,15084,13329
1629709759261,3280,15639,13754
1629709759271,3403,16340,14448
1629709759281,3490,16833,14815
1629709759291,3481,16839,14464
1629709759301,3409,16551,13914
1629709759311,3350,16249,13470
1629709759321,3251,15802,12805
1629709759331,3204,15747,12743
1629709759341,3327,16640,13901
1629709759351,3511,17618,15134
1629709759361,3634,18041,15845
1629709759371,3722,17871,16246
1629709759381,3737,17437,16246
1629709759391,3762,17392,16338
1629709759401,3751,17430,16317
1629709759411,3797,18109,16353
1629709759421,3717,18194,15945
1629709759431,3619,17674,15462
1629709759441,3463,16597,14784
1629709759451,3321,15696,14193
1629709759461,3164,14940,13429
1629709759471,2987,14160,12557
1629709759481,2835,13376,11788
1629709759491,2713,12691,11225
1629709759501,2636,12185,10824
1629709759511,2587,11896,10633
1629709759521,2576,11805,10651
1629709759531,2610,11891,10811
1629709759541,2639,12058,11014
1629709759551,2681,12298,11277
1629709759561,2728,12554,11472
1629709759571,2752,12794,11492
1629709759581,2751,12885,11324
1629709759591,2717,12761,11006
1629709759601,2645,12395,10595
1629709759611,2568,11913,10201
1629709759621,2476,11342,9751
1629709759631,2360,10643,9156
1629709759641,2240,9868,8478
1629709759651,2115,9073,7831
1629709759661,1986,8281,7186
1629709759671,1873,7488,6533
1629709759681,1760,6749,5940
1629709759691,1658,6055,5381
1629709759701,1567,5420,4851
1629709759711,1494,4906,4448
1629709759721,1442,4533,4174
1629709759731,1401,4283,4021
1629709759741,1372,4076,3905
1629709759751,1355,3936,3849
1629709759761,1326,3750,3720
1629709759771,1282,3460,3474
1629709759781,1214,3008,3088
1629709759791,1150,2579,2763
1629709759801,1105,2306,2583
1629709759811,1096,2204,2529
1629709759821,1098,2182,2551
1629709759831,1120,2245,2662
1629709759841,1131,2313,2754
1629709759851,1143,2357,2833
1629709759861,1088,2053,2562
1629709759871,1078,1963,2553
1629709759881,1110,2228,2865
1629709759891,1251,3010,3678
1629709759901,1447,4187,4905
1629709759911,1613,5052,5809
1629709759921,1829,6093,7021
1629709759931,2197,8087,8982
1629709759941,2728,11410,11140
1629709759951,3348,14699,14469
1629709759961,6298,28511,33386
1629709759971,12957,49014,52893
1629709759981,5606,32768,32768
1629709759991,5285,20023,23844
1629709760001,3095,9172,12049
1629709760011,1843,5228,6344
1629709760021,1457,3253,4571
1629709760031,1433,3315,4631
1629709760041,1387,3109,4156
1629709760051,1137,1964,2773
1629709760061,1003,1466,2125
1629709760071,978,1414,2007
1629709760081,973,1422,2000
1629709760091,976,1444,2015
1629709760101,1000,1528,2087
1629709760111,1013,1570,2116
1629709760121,1002,1524,2100
1629709760131,1008,1442,2048
1629709760141,989,1404,2019
1629709760151,985,1415,2027
1629709760161,985,1443,2057
1629709760171,1003,1464,2050
1629709760181,1064,1482,2061
1629709760191,1030,1490,2066
1629709760201,1056,1485,2110
1629709760211,982,1450,2072
1629709760221,983,1432,2074
1629709760231,1023,1428,2068
1629709760241,1043,1493,2148
1629709760251,1036,1520,2189
1629709760261,1037,1486,2126
1629709760271,1012,1419,2040
1629709760281,969,1386,1988
1629709760291,978,1404,1974
1629709760301,994,1379,1976
1629709760311,989,1385,1983
1629709760321,983,1412,2052
1629709760331,1015,1517,2128
1629709760341,1028,1553,2153
1629709760351,1012,1423,2048
1629709760361,972,1389,1969
1629709760371,976,1384,1965
1629709760381,972,1390,1971
1629709760391,974,1385,1979
1629709760401,986,1399,1992
1629709760411,981,1424,2004
1629709760421,978,1419,2003
1629709760431,992,1401,1998
1629709760441,974,1407,1984
1629709760451,962,1381,1976
1629709760461,966,1375,1970
1629709760471,967,1402,2000
1629709760481,968,1415,2007
1629709760491,986,1428,2019
1629709760501,980,1427,2014
1629709760511,981,1429,2021
1629709760521,989,1426,2022
1629709760531,980,1406,2014
1629709760541,973,1423,2019
1629709760551,988,1436,2034
1629709760561,984,1439,2027
1629709760571,979,1438,2021
1629709760581,991,1427,2026
1629709760591,978,1440,2031
1629709760601,969,1428,2024
1629709760611,989,1432,2027
1629709760621,969,1429,2024
1629709760631,973,1437,2024
1629709760641,983,1431,2026
1629709760651,972,1449,2042
1629709760661,987,1444,2041
1629709760671,980,1437,2038
1629709760681,989,1486,2066
1629709760691,999,1526,2078
1629709760701,984,1459,2048
1629709760711,984,1400,2001
1629709760721,996,1389,1995
1629709760731,963,1389,1993
1629709760741,983,1401,2005
1629709760751,988,1459,2056
1629709760761,1015,1545,2082
1629709760771,999,1619,2116
1629709760781,1006,1614,2114
1629709760791,999,1521,2090
1629709760801,987,1430,2044
1629709760811,970,1400,2011
1629709760821,976,1401,2001
1629709760831,970,1404,2011
1629709760841,984,1424,2040
1629709760851,1001,1494,2084
1629709760861,1004,1580,2123
1629709760871,1010,1605,2136
1629709760881,1005,1604,2135
1629709760891,998,1573,2125
1629709760901,970,1479,2091
1629709760911,957,1405,2084
1629709760921,945,1374,2076
1629709760931,914,1375,2026
1629709760941,940,1405,2006
1629709760951,967,1459,2044
1629709760961,1007,1573,2141
1629709760971,1075,1762,2387
1629709760981,1195,2041,2778
1629709760991,1256,2121,2923
1629709761001,1372,2313,3344
1629709761011,1639,2823,4125
1629709761021,2049,3712,5426
1629709761031,2231,4273,5927
1629709761041,1836,2795,4030
1629709761051,968,1486,1772
1629709761061,250,927,345
1629709761071,420,1174,864
1629709761081,157,652,0
1629709761091,20,449,0
1629709761101,267,1171,262
1629709761111,560,1552,1341
1629709761121,967,1567,1740
1629709761131,1020,1577,1989
1629709761141,1042,1584,2140
1629709761151,1042,1578,2145
1629709761161,1033,1585,2150
1629709761171,1033,1583,2151
1629709761181,1024,1554,2144
1629709761191,1013,1539,2132
1629709761201,1009,1540,2126
1629709761211,995,1542,2120
1629709761221,991,1528,2116
1629709761231,991,917,2112
1629709761241,756,485,2109
1629709761251,38,194,2100
1629709761261,0,0,2098
1629709761271,889,621,2100
1629709761281,990,878,2101
1629709761291,996,1313,2092
1629709761301,1016,1969,2098
1629709761311,2110,3865,2092
1629709761321,3475,4971,2093
1629709761331,3526,4693,2088
1629709761341,3488,4654,2087
1629709761351,3322,4632,2085
1629709761361,2976,4405,2083
1629709761371,2303,3216,2085
1629709761381,1110,1473,2086
1629709761391,0,0,2084
1629709761401,0,137,2084
1629709761411,0,186,2078
1629709761421,609,1081,2084
1629709761431,957,1475,2088
1629709761441,960,1477,2080
1629709761451,971,1518,2086
1629709761461,995,1574,2090
1629709761471,1006,1597,2086
1629709761481,1006,1596,2079
1629709761491,1001,1600,2083
1629709761501,1001,1605,2078
1629709761511,998,1608,2085
1629709761521,1007,1606,2085
1629709761531,1002,1596,2084
1629709761541,1001,1590,2083
1629709761551,1003,1590,2087
1629709761561,1000,1595,2096
1629709761571,1015,1608,2093
1629709761581,1003,1619,2096
1629709761591,1004,1628,2102
1629709761601,1004,1630,2101
1629709761611,1013,1618,2106
1629709761621,999,1607,2093
1629709761631,1012,1595,2097
1629709761641,1008,1585,2093
1629709761651,975,1562,2098
1629709761661,995,1598,2097
1629709761671,1000,1621,2107
1629709761681,1007,1611,2105
1629709761691,1024,1635,2103
1629709761701,1028,1659,2124
1629709761711,1009,1664,2134
1629709761721,1021,1677,2142
1629709761731,1023,1686,2149
1629709761741,1023,1703,2162
1629709761751,1015,1719,2164
1629709761761,1020,1726,2158
1629709761771,1019,1731,2157
1629709761781,1024,1734,2162
1629709761791,1024,1725,2162
1629709761801,1024,1697,2160
1629709761811,1016,1666,2157
1629709761821,1016,1640,2146
1629709761831,1019,1632,2149
1629709761841,1021,1650,2159
1629709761851,1026,1667,2165
1629709761861,1030,1689,2163
1629709761871,1030,1676,2152
1629709761881,1036,1640,2139
1629709761891,1044,1634,2106
1629709761901,1008,1588,2097
1629709761911,1004,1558,2083
1629709761921,1007,1572,2096
1629709761931,1004,1601,2100
1629709761941,1027,1616,2120
1629709761951,1019,1659,2126
1629709761961,1019,1693,2145
1629709761971,1030,1704,2165
1629709761981,1031,1694,2164
1629709761991,1027,1690,2161
1629709762001,1021,1667,2152
1629709762011,1021,1653,2143
1629709762021,1019,1648,2134
1629709762031,1021,1658,2132
1629709762041,1019,1663,2133
1629709762051,1023,1677,2136
1629709762061,1018,1675,2137
1629709762071,1018,1675,2123
1629709762081,1014,1667,2132
1629709762091,1008,1645,2132
1629709762101,1023,1646,2133
1629709762111,1018,1660,2134
1629709762121,1024,1667,2135
1629709762131,1024,1681,2143
1629709762141,1023,1686,2138
1629709762151,1018,1687,2138
1629709762161,1021,1685,2138
1629709762171,1021,1674,2135
1629709762181,1022,1665,2138
1629709762191,1021,1664,2138
1629709762201,1018,1669,2137
1629709762211,1022,1676,2139
1629709762221,1031,1690,2138
1629709762231,1021,1693,2139
1629709762241,1023,1690,2129
1629709762251,1016,1695,2134
1629709762261,1019,1700,2122
1629709762271,1020,1705,2122
1629709762281,1023,1706,2122
1629709762291,1022,1705,2120
1629709762301,1022,1702,2111
1629709762311,1020,1687,2101
1629709762321,1005,1662,2080
1629709762331,1019,1633,2072
1629709762341,1018,1642,2080
1629709762351,1024,1668,2115
1629709762361,1057,1655,2123
1629709762371,1061,1659,2130
1629709762381,1027,1605,2089
1629709762391,1055,1565,2060
1629709762401,997,1578,2039
1629709762411,1005,1567,2042
1629709762421,1017,1592,2073
1629709762431,1014,1605,2079
1629709762441,1008,1633,2104
1629709762451,1016,1638,2112
1629709762461,1011,1628,2101
1629709762471,1011,1626,2105
1629709762481,1016,1614,2104
1629709762491,1011,1584,2102
1629709762501,1006,1541,2082
1629709762511,998,1515,2073
1629709762521,997,1520,2067
1629709762531,997,1542,2068
1629709762541,1010,1556,2062
1629709762551,1007,1577,2070
1629709762561,1000,1543,2063
1629709762571,998,1488,2047
1629709762581,983,1426,2029
1629709762591,981,1397,2004
1629709762601,972,1399,1988
1629709762611,976,1396,1997
1629709762621,979,1400,2002
1629709762631,980,1408,2006
1629709762641,981,1405,2005
1629709762651,975,1397,1989
1629709762661,975,1396,1986
1629709762671,971,1393,1982
1629709762681,977,1393,1981
1629709762691,971,1396,1983
1629709762701,975,1392,1983
1629709762711,971,1385,1967
1629709762721,967,1394,1980
1629709762731,963,1396,1977
1629709762741,962,1399,1987
1629709762751,985,1417,2018
1629709762761,990,1477,2050
1629709762771,996,1510,2052
1629709762781,996,1496,2065
1629709762791,1012,1484,2069
1629709762801,1000,1445,2041
1629709762811,985,1426,2021
1629709762821,987,1426,2034
1629709762831,995,1463,2063
1629709762841,997,1470,2060
1629709762851,992,1457,2050
1629709762861,984,1439,2044
1629709762871,986,1424,2030
1629709762881,986,1420,2025
1629709762891,982,1408,2002
1629709762901,994,1423,2002
1629709762911,994,1436,2051
1629709762921,975,1455,2067
1629709762931,1025,1547,2100
1629709762941,1050,1570,2115
1629709762951,1042,1527,2100
1629709762961,1013,1469,2068
1629709762971,998,1437,2045
1629709762981,986,1420,2030
1629709762991,983,1418,2032
1629709763001,996,1443,2056
1629709763011,998,1452,2059
1629709763021,989,1423,2037
1629709763031,970,1399,2010
1629709763041,978,1395,1991
1629709763051,980,1390,1980
1629709763061,972,1390,1978
1629709763071,982,1391,1992
1629709763081,980,1397,1999
1629709763091,981,1405,2011
1629709763101,976,1402,1997
1629709763111,971,1399,1993
1629709763121,992,1396,1996
1629709763131,978,1394,1990
1629709763141,973,1395,1981
1629709763151,971,1392,1982
1629709763161,977,1394,1996
1629709763171,984,1400,2005
1629709763181,984,1403,2016
1629709763191,985,1438,2051
1629709763201,1003,1459,2079
1629709763211,994,1474,2084
1629709763221,998,1473,2079
1629709763231,994,1482,2078
1629709763241,997,1483,2074
1629709763251,993,1489,2082
1629709763261,994,1506,2092
1629709763271,1001,1532,2108
1629709763281,1002,1556,2128
1629709763291,1010,1576,2158
1629709763301,1033,1585,2210
1629709763311,1017,1590,2219
1629709763321,1013,1592,2241
1629709763331,1026,1610,2257
1629709763341,1019,1606,2238
1629709763351,1015,1550,2172
1629709763361,1001,1493,2111
1629709763371,997,1490,2093
1629709763381,980,1457,2074
1629709763391,985,1445,2043
1629709763401,987,1434,2038
1629709763411,986,1440,2051
1629709763421,993,1461,2066
1629709763431,988,1458,2057
1629709763441,987,1441,2041
1629709763451,985,1429,2033
1629709763461,983,1421,2023
1629709763471,985,1417,2021
1629709763481,979,1416,2021
1629709763491,985,1425,2031
1629709763501,985,1437,2039
1629709763511,986,1433,2045
1629709763521,987,1427,2034
1629709763531,989,1438,2043
1629709763541,972,1447,2067
1629709763551,980,1475,2074
1629709763561,990,1496,2115
1629709763571,1005,1540,2133
1629709763581,1006,1578,2187
1629709763591,1017,1610,2228
1629709763601,1019,1632,2256
1629709763611,1025,1669,2305
1629709763621,1037,1744,2386
1629709763631,1052,1852,2482
1629709763641,1069,1966,2570
1629709763651,1084,2037,2628
1629709763661,1087,2055,2646
1629709763671,1089,2036,2648
1629709763681,1078,2025,2635
1629709763691,1080,1992,2601
1629709763701,1072,1973,2576
1629709763711,1063,1932,2508
1629709763721,1048,1854,2426
1629709763731,1041,1778,2373
1629709763741,1029,1652,2257
1629709763751,1025,1673,2305
1629709763761,1076,1979,2644
1629709763771,1122,2338,3043
1629709763781,1248,3107,3575
1629709763791,1266,3607,3577
1629709763801,1254,3552,3467
1629709763811,1182,2934,3187
1629709763821,1091,2087,2625
1629709763831,1021,1608,2223
1629709763841,1012,1597,2259
1629709763851,1042,1786,2423
1629709763861,1064,1999,2525
1629709763871,1082,2225,2597
1629709763881,1076,2154,2527
1629709763891,1033,1781,2287
1629709763901,1005,1558,2151
1629709763911,999,1508,2109
1629709763921,994,1513,2118
1629709763931,1014,1602,2188
1629709763941,1025,1728,2243
1629709763951,1018,1726,2198
1629709763961,1012,1665,2173
1629709763971,1007,1610,2169
1629709763981,1004,1541,2131
1629709763991,999,1523,2121
1629709764001,995,1566,2158
1629709764011,1023,1657,2181
1629709764021,998,1667,2150
1629709764031,1010,1688,2160
1629709764041,1015,1697,2188
1629709764051,1009,1622,2173
1629709764061,1010,1586,2159
1629709764071,1010,1611,2153
1629709764081,1018,1684,2187
1629709764091,1034,1817,2268
1629709764101,1033,1879,2299
1629709764111,1040,1892,2318
1629709764121,1041,1889,2340
1629709764131,1030,1793,2282
1629709764141,1024,1716,2223
1629709764151,1031,1753,2261
1629709764161,1034,1847,2335
1629709764171,1043,1873,2336
1629709764181,1030,1898,2353
1629709764191,1045,1887,2371
1629709764201,1049,1762,2320
1629709764211,1034,1677,2280
1629709764221,1046,1737,2333
1629709764231,1070,1814,2390
1629709764241,1058,1939,2431
1629709764251,1036,2015,2483
1629709764261,1072,2003,2494
1629709764271,1077,1905,2464
1629709764281,1068,1849,2433
1629709764291,1074,1798,2372
1629709764301,1054,1798,2331
1629709764311,1046,1827,2321
1629709764321,1046,1831,2310
1629709764331,1035,1805,2295
1629709764341,1040,1764,2281
1629709764351,1018,1724,2244
1629709764361,1006,1697,2208
1629709764371,1022,1694,2187
1629709764381,1018,1689,2171
1629709764391,1010,1684,2164
1629709764401,1014,1678,2165
1629709764411,1014,1650,2150
1629709764421,1005,1610,2123
1629709764431,1004,1584,2103
1629709764441,1001,1579,2096
1629709764451,1000,1578,2103
1629709764461,1004,1579,2092
1629709764471,996,1571,2087
1629709764481,994,1557,2077
1629709764491,1005,1551,2074
1629709764501,997,1562,2085
1629709764511,993,1569,2097
1629709764521,1008,1576,2097
1629709764531,995,1581,2104
1629709764541,1011,1612,2118
1629709764551,1001,1647,2145
1629709764561,1014,1672,2166
1629709764571,1016,1677,2182
1629709764581,1024,1690,2202
1629709764591,1033,1710,2222
1629709764601,1033,1743,2236
1629709764611,1033,1804,2274
1629709764621,1050,1864,2318
1629709764631,1035,1906,2358
1629709764641,1062,1951,2405
1629709764651,1080,1976,2448
1629709764661,1070,2022,2462
1629709764671,1079,2091,2522
1629709764681,1058,2188,2573
1629709764691,1070,2248,2611
1629709764701,1084,2296,2668
1629709764711,1097,2303,2679
1629709764721,1093,2259,2642
1629709764731,1068,2188,2578
1629709764741,1072,2109,2505
1629709764751,1048,2009,2428
1629709764761,1061,1935,2374
1629709764771,1033,1882,2332
1629709764781,1037,1817,2288
1629709764791,1029,1747,2237
1629709764801,1024,1698,2195
1629709764811,999,1650,2152
1629709764821,999,1607,2127
1629709764831,1001,1587,2110
1629709764841,1009,1577,2098
1629709764851,1004,1563,2100
1629709764861,997,1559,2098
1629709764871,1004,1554,2087
1629709764881,1003,1552,2089
1629709764891,1005,1552,2092
1629709764901,1002,1556,2098
1629709764911,998,1558,2098
1629709764921,1004,1557,2095
1629709764931,1005,1556,2096
1629709764941,998,1558,2096
1629709764951,989,1566,2100
1629709764961,1008,1585,2111
1629709764971,1011,1596,2125
1629709764981,1002,1598,2137
1629709764991,1017,1625,2149
1629709765001,1004,1655,2162
1629709765011,1020,1667,2189
1629709765021,1011,1736,2218
1629709765031,1032,1762,2248
1629709765041,1034,1794,2264
1629709765051,1033,1816,2286
1629709765061,1032,1827,2302
1629709765071,1032,1839,2308
1629709765081,1036,1839,2311
1629709765091,1041,1845,2314
1629709765101,1037,1835,2311
1629709765111,1036,1813,2298
1629709765121,1044,1786,2280
1629709765131,1033,1760,2267
1629709765141,1028,1745,2256
1629709765151,1032,1723,2238
1629709765161,1018,1712,2239
1629709765171,1023,1708,2219
1629709765181,1030,1693,2209
1629709765191,1023,1686,2202
1629709765201,1019,1681,2195
1629709765211,1013,1669,2191
1629709765221,1019,1662,2179
1629709765231,1016,1649,2167
1629709765241,1014,1641,2155
1629709765251,1013,1639,2153
1629709765261,1016,1639,2147
1629709765271,1006,1632,2141
1629709765281,1015,1634,2136
1629709765291,1011,1631,2136
1629709765301,1005,1623,2138
1629709765311,1012,1629,2122
1629709765321,990,1644,2138
1629709765331,1014,1645,2144
1629709765341,1011,1664,2137
1629709765351,1003,1658,2155
1629709765361,1024,1676,2162
1629709765371,1014,1672,2156
1629709765381,1028,1673,2155
1629709765391,1018,1674,2162
1629709765401,1024,1672,2163
1629709765411,1020,1670,2162
1629709765421,1017,1675,2166
1629709765431,1016,1667,2165
1629709765441,1018,1664,2167
1629709765451,1019,1672,2173
1629709765461,1029,1678,2176
1629709765471,1022,1680,2183
1629709765481,1019,1678,2196
1629709765491,1022,1682,2190
1629709765501,1027,1689,2207
1629709765511,1028,1700,2210
1629709765521,1018,1708,2221
1629709765531,1032,1712,2220
1629709765541,1035,1714,2216
1629709765551,1033,1714,2214
1629709765561,1025,1704,2208
1629709765571,1026,1693,2198
1629709765581,1023,1692,2186
1629709765591,1027,1685,2185
1629709765601,1018,1689,2188
1629709765611,1024,1695,2192
1629709765621,1008,1705,2191
1629709765631,1015,1708,2197
1629709765641,1029,1714,2200
1629709765651,1024,1724,2195
1629709765661,1015,1738,2204
1629709765671,1023,1738,2210
1629709765681,1023,1748,2217
1629709765691,1024,1753,2222
1629709765701,1033,1756,2221
1629709765711,1021,1746,2212
1629709765721,1032,1745,2204
1629709765731,1019,1732,2199
1629709765741,1025,1726,2193
1629709765751,1022,1720,2190
1629709765761,1019,1718,2182
1629709765771,1023,1712,2182
1629709765781,1025,1709,2171
1629709765791,1023,1710,2168
1629709765801,1035,1709,2178
1629709765811,1028,1701,2185
1629709765821,1025,1713,2197
1629709765831,1023,1711,2189
1629709765841,1018,1715,2192
1629709765851,1027,1723,2188
1629709765861,1034,1723,2195
1629709765871,1033,1720,2196
1629709765881,1030,1725,2201
1629709765891,1032,1721,2202
1629709765901,1027,1729,2202
1629709765911,1034,1733,2201
1629709765921,1024,1741,2193
1629709765931,1026,1731,2189
1629709765941,1035,1734,2190
1629709765951,1025,1740,2190
1629709765961,1033,1746,2187
1629709765971,1038,1746,2195
1629709765981,1021,1753,2191
1629709765991,1034,1764,2202
1629709766001,1028,1769,2209
1629709766011,1029,1778,2222
1629709766021,1031,1792,2234
1629709766031,1029,1783,2225
1629709766041,1029,1773,2218
1629709766051,1031,1769,2219
1629709766061,1024,1761,2210
1629709766071,1033,1741,2199
1629709766081,1025,1729,2191
1629709766091,1026,1719,2188
1629709766101,1025,1703,2180
1629709766111,1030,1697,2150
1629709766121,1010,1689,2161
1629709766131,1011,1669,2159
1629709766141,1026,1676,2159
1629709766151,1017,1675,2159
1629709766161,1021,1657,2150
1629709766171,1019,1649,2146
1629709766181,1013,1650,2146
1629709766191,1016,1649,2144
1629709766201,1012,1648,2141
1629709766211,1017,1641,2139
1629709766221,1013,1640,2131
1629709766231,1011,1628,2128
1629709766241,1014,1621,2122
1629709766251,1012,1614,2118
1629709766261,1012,1606,2115
1629709766271,1001,1605,2111
1629709766281,1003,1593,2111
1629709766291,1006,1603,2108
1629709766301,1002,1592,2114
1629709766311,1009,1593,2103
1629709766321,1004,1592,2097
1629709766331,1010,1585,2095
1629709766341,1001,1591,2100
1629709766351,1010,1589,2104
1629709766361,1004,1594,2106
1629709766371,1009,1595,2101
1629709766381,1007,1592,2100
1629709766391,1010,1592,2104
1629709766401,1008,1591,2105
1629709766411,1012,1591,2108
1629709766421,1010,1597,2113
1629709766431,1012,1595,2122
1629709766441,1012,1605,2112
1629709766451,1012,1604,2128
1629709766461,1009,1611,2127
1629709766471,1006,1614,2130
1629709766481,1008,1613,2125
1629709766491,1015,1619,2125
1629709766501,1016,1629,2134
1629709766511,1015,1627,2135
1629709766521,1015,1627,2140
1629709766531,1012,1629,2143
1629709766541,1021,1633,2144
1629709766551,1013,1639,2137
1629709766561,1010,1637,2145
1629709766571,1016,1633,2147
1629709766581,1008,1629,2142
1629709766591,1011,1624,2136
1629709766601,1012,1622,2134
1629709766611,1007,1615,2119
1629709766621,1010,1608,2127
1629709766631,1004,1608,2108
1629709766641,1013,1601,2113
1629709766651,1011,1594,2109
1629709766661,1004,1585,2102
1629709766671,1005,1582,2096
1629709766681,1004,1577,2095
1629709766691,1004,1569,2092
1629709766701,1006,1563,2086
1629709766711,1004,1561,2086
1629709766721,1014,1562,2086
1629709766731,1004,1555,2075
1629709766741,1001,1549,2069
1629709766751,1001,1544,2066
1629709766761,1005,1543,2073
1629709766771,1002,1552,2071
1629709766781,1001,1552,2075
1629709766791,1003,1547,2080
1629709766801,1003,1544,2077
1629709766811,1001,1548,2080
1629709766821,1002,1550,2093
1629709766831,1004,1555,2099
1629709766841,1007,1556,2105
1629709766851,1004,1560,2107
1629709766861,1006,1560,2102
1629709766871,1010,1565,2101
1629709766881,1003,1568,2098
1629709766891,1010,1569,2095
1629709766901,1006,1572,2090
1629709766911,1005,1574,2092
1629709766921,996,1571,2088
1629709766931,1012,1575,2090
1629709766941,998,1582,2101
1629709766951,1011,1580,2100
1629709766961,1006,1582,2106
1629709766971,1005,1585,2106
1629709766981,1008,1587,2109
1629709766991,1008,1592,2114
1629709767001,1006,1594,2110
1629709767011,1009,1588,2111
1629709767021,1002,1591,2110
1629709767031,1008,1587,2109
1629709767041,1006,1592,2111
1629709767051,1009,1591,2111
1629709767061,1009,1588,2111
1629709767071,1007,1588,2109
1629709767081,999,1587,2110
1629709767091,995,1581,2106
1629709767101,1004,1579,2102
1629709767111,1004,1576,2101
1629709767121,1002,1581,2098
1629709767131,1004,1574,2105
1629709767141,1004,1585,2097
1629709767151,1008,1576,2096
1629709767161,1007,1578,2102
1629709767171,1001,1580,2097
1629709767181,1007,1590,2097
1629709767191,1010,1593,2098
1629709767201,1008,1591,2097
1629709767211,1002,1586,2096
1629709767221,1003,1583,2096
1629709767231,1006,1580,2098
1629709767241,998,1571,2096
1629709767251,998,1576,2109
1629709767261,1000,1577,2106
1629709767271,1003,1574,2110
1629709767281,1007,1571,2103
1629709767291,1008,1574,2100
1629709767301,1011,1577,2105
1629709767311,1006,1584,2108
1629709767321,1015,1583,2110
1629709767331,1009,1586,2108
1629709767341,1007,1588,2109
1629709767351,1003,1586,2111
1629709767361,1002,1586,2110
1629709767371,1009,1583,2110
1629709767381,1003,1584,2107
1629709767391,1010,1585,2109
1629709767401,1003,1583,2105
1629709767411,1007,1589,2106
1629709767421,1007,1590,2112
1629709767431,1002,1578,2110
1629709767441,992,1593,2122
1629709767451,997,1592,2115
1629709767461,999,1595,2122
1629709767471,1001,1594,2117
1629709767481,1002,1597,2117
1629709767491,1004,1596,2115
1629709767501,1003,1596,2112
1629709767511,1003,1595,2110
1629709767521,1008,1577,2112
1629709767531,1017,1578,2104
1629709767541,1024,1581,2104
1629709767551,1016,1571,2101
1629709767561,1012,1575,2099
1629709767571,1017,1565,2087
1629709767581,1008,1569,2087
1629709767591,1010,1552,2074
1629709767601,1010,1544,2082
1629709767611,1007,1543,2080
1629709767621,996,1534,2074
1629709767631,992,1534,2074
1629709767641,990,1527,2071
1629709767651,990,1526,2067
1629709767661,990,1524,2066
1629709767671,993,1529,2067
1629709767681,997,1526,2070
1629709767691,994,1526,2067
1629709767701,996,1529,2068
1629709767711,996,1533,2076
1629709767721,999,1531,2080
1629709767731,995,1539,2084
1629709767741,988,1544,2087
1629709767751,1010,1561,2102
1629709767761,999,1575,2099
1629709767771,1000,1580,2105
1629709767781,1003,1598,2117
1629709767791,1009,1605,2130
1629709767801,1009,1625,2141
1629709767811,1008,1639,2154
1629709767821,1013,1645,2162
1629709767831,1018,1662,2175
1629709767841,1018,1676,2186
1629709767851,1022,1687,2194
1629709767861,1021,1706,2208
1629709767871,1026,1713,2213
1629709767881,1024,1711,2213
1629709767891,1026,1701,2206
1629709767901,1027,1729,2208
1629709767911,1013,1716,2222
1629709767921,1027,1731,2226
1629709767931,1034,1755,2239
1629709767941,1026,1764,2233
1629709767951,1030,1771,2243
1629709767961,1028,1785,2255
1629709767971,1038,1795,2261
1629709767981,1041,1813,2276
1629709767991,1042,1834,2293
1629709768001,1036,1854,2308
1629709768011,1042,1866,2311
1629709768021,1035,1877,2321
1629709768031,1048,1878,2318
1629709768041,1042,1868,2314
1629709768051,1040,1845,2306
1629709768061,1032,1829,2294
1629709768071,1025,1820,2279
1629709768081,1036,1814,2260
1629709768091,1016,1797,2254
1629709768101,1029,1767,2227
1629709768111,1022,1740,2207
1629709768121,1021,1712,2189
1629709768131,1016,1688,2166
1629709768141,1011,1665,2155
1629709768151,1018,1660,2152
1629709768161,1012,1652,2146
1629709768171,1016,1653,2140
1629709768181,1012,1649,2140
1629709768191,1013,1650,2139
1629709768201,1018,1649,2136
1629709768211,1016,1654,2141
1629709768221,1015,1650,2140
1629709768231,1024,1663,2136
1629709768241,1019,1657,2144
1629709768251,1022,1653,2154
1629709768261,1016,1668,2150
1629709768271,1017,1671,2156
1629709768281,1019,1680,2165
1629709768291,1022,1690,2174
1629709768301,1022,1705,2186
1629709768311,1028,1725,2200
1629709768321,1038,1738,2212
1629709768331,1030,1749,2221
1629709768341,1032,1765,2238
1629709768351,1034,1769,2257
1629709768361,1039,1780,2278
1629709768371,1045,1815,2296
1629709768381,1044,1829,2340
1629709768391,1041,1890,2362
1629709768401,1068,1920,2398
1629709768411,1068,1968,2418
1629709768421,1069,1975,2449
1629709768431,1069,1995,2465
1629709768441,1079,1985,2479
1629709768451,1058,2002,2466
1629709768461,1069,2019,2471
1629709768471,1062,2002,2451
1629709768481,1063,1978,2436
1629709768491,1064,1950,2415
1629709768501,1051,1919,2387
1629709768511,1047,1884,2346
1629709768521,1036,1847,2317
1629709768531,1033,1812,2282
1629709768541,1027,1757,2238
1629709768551,1025,1722,2209
1629709768561,1012,1685,2187
1629709768571,1010,1667,2166
1629709768581,1013,1648,2148
1629709768591,1007,1634,2136
1629709768601,1010,1611,2119
1629709768611,1007,1596,2111
1629709768621,1001,1594,2107
1629709768631,1002,1589,2112
1629709768641,1009,1591,2110
1629709768651,1006,1591,2114
1629709768661,1003,1593,2114
1629709768671,1007,1603,2120
1629709768681,1012,1619,2133
1629709768691,1019,1630,2156
1629709768701,1019,1653,2168
1629709768711,1022,1673,2179
1629709768721,1029,1690,2206
1629709768731,1029,1712,2237
1629709768741,1024,1736,2260
1629709768751,1036,1779,2281
1629709768761,1039,1792,2299
1629709768771,1039,1811,2330
1629709768781,1053,1835,2353
1629709768791,1054,1870,2376
1629709768801,1065,1897,2395
1629709768811,1054,1936,2420
1629709768821,1064,1955,2446
1629709768831,1061,1965,2441
1629709768841,1061,1945,2444
1629709768851,1056,1928,2410
1629709768861,1040,1927,2391
1629709768871,1046,1883,2372
1629709768881,1032,1872,2348
1629709768891,1034,1854,2324
1629709768901,1030,1821,2289
1629709768911,1031,1775,2260
1629709768921,1020,1724,2220
1629709768931,1018,1676,2179
1629709768941,1009,1645,2153
1629709768951,1012,1627,2144
1629709768961,1012,1619,2138
1629709768971,1006,1613,2124
1629709768981,1008,1599,2111
1629709768991,1006,1583,2101
1629709769001,1006,1567,2091
1629709769011,1000,1566,2090
1629709769021,995,1577,2099
1629709769031,996,1566,2093
1629709769041,1009,1581,2103
1629709769051,1001,1580,2102
1629709769061,996,1580,2101
1629709769071,1009,1594,2105
1629709769081,1006,1601,2116
1629709769091,1006,1613,2126
1629709769101,1011,1628,2134
1629709769111,1012,1643,2146
1629709769121,1012,1654,2165
1629709769131,1015,1674,2164
1629709769141,1020,1697,2190
1629709769151,1022,1722,2217
1629709769161,1029,1748,2244
1629709769171,1032,1783,2272
1629709769181,1030,1830,2312
1629709769191,1037,1872,2334
1629709769201,1062,1933,2378
1629709769211,1045,1976,2436
1629709769221,1078,2030,2482
1629709769231,1074,2063,2525
1629709769241,1071,2122,2561
1629709769251,1082,2155,2592
1629709769261,1084,2180,2605
1629709769271,1084,2171,2589
1629709769281,1071,2163,2590
1629709769291,1075,2095,2544
1629709769301,1077,2035,2488
1629709769311,1062,1968,2433
1629709769321,1053,1907,2380
1629709769331,1044,1850,2321
1629709769341,1037,1796,2271
1629709769351,1026,1743,2232
1629709769361,1020,1712,2206
1629709769371,1022,1683,2183
1629709769381,1019,1665,2172
1629709769391,1015,1638,2143
1629709769401,1014,1620,2124
1629709769411,1007,1601,2115
1629709769421,1007,1593,2106
1629709769431,1008,1582,2101
1629709769441,1008,1577,2095
1629709769451,1005,1565,2088
1629709769461,1002,1556,2078
1629709769471,997,1544,2070
1629709769481,999,1544,2069
1629709769491,993,1536,2066
1629709769501,998,1541,2057
1629709769511,1008,1537,2071
1629709769521,996,1535,2061
1629709769531,1006,1542,2060
1629709769541,1000,1565,2077
1629709769551,1002,1568,2092
1629709769561,1018,1593,2108
1629709769571,1007,1636,2146
1629709769581,1017,1687,2191
1629709769591,1026,1747,2239
1629709769601,1034,1825,2303
1629709769611,1048,1899,2364
1629709769621,1058,1985,2450
1629709769631,1073,2092,2548
1629709769641,1086,2181,2639
1629709769651,1106,2274,2740
1629709769661,1123,2386,2854
1629709769671,1130,2480,2905
1629709769681,1147,2552,2980
1629709769691,1150,2565,3020
1629709769701,1156,2558,3024
1629709769711,1151,2477,2973
1629709769721,1141,2378,2917
1629709769731,1132,2298,2836
1629709769741,1132,2217,2764
1629709769751,1117,2148,2676
1629709769761,1090,2074,2594
1629709769771,1091,1964,2505
1629709769781,1073,1887,2432
1629709769791,1054,1820,2366
1629709769801,1045,1769,2302
1629709769811,1040,1723,2255
1629709769821,1025,1682,2208
1629709769831,1023,1644,2171
1629709769841,1012,1609,2150
1629709769851,1008,1585,2121
1629709769861,998,1564,2102
1629709769871,1001,1536,2088
1629709769881,1000,1527,2068
1629709769891,994,1510,2056
1629709769901,992,1496,2049
1629709769911,993,1497,2049
1629709769921,1002,1490,2054
1629709769931,994,1493,2047
1629709769941,991,1492,2052
1629709769951,994,1503,2052
1629709769961,995,1505,2060
1629709769971,997,1519,2070
1629709769981,997,1538,2080
1629709769991,997,1542,2091
1629709770001,1001,1559,2106
1629709770011,1004,1607,2125
1629709770021,1015,1627,2166
1629709770031,1020,1667,2182
1629709770041,1022,1701,2226
1629709770051,1027,1745,2267
1629709770061,1036,1787,2309
1629709770071,1046,1825,2352
1629709770081,1052,1876,2408
1629709770091,1071,1926,2473
1629709770101,1086,1996,2542
1629709770111,1089,2070,2625
1629709770121,1112,2158,2700
1629709770131,1111,2188,2744
1629709770141,1120,2207,2744
1629709770151,1111,2203,2756
1629709770161,1111,2196,2725
1629709770171,1100,2144,2682
1629709770181,1098,2109,2625
1629709770191,1089,2045,2552
1629709770201,1074,1967,2485
1629709770211,1057,1900,2421
1629709770221,1054,1846,2366
1629709770231,1044,1792,2313
1629709770241,1034,1749,2268
1629709770251,1027,1714,2230
1629709770261,1016,1672,2187
1629709770271,1005,1627,2152
1629709770281,1013,1598,2132
1629709770291,1003,1567,2106
1629709770301,1003,1547,2089
1629709770311,999,1523,2068
1629709770321,996,1509,2056
1629709770331,989,1489,2061
1629709770341,994,1501,2041
1629709770351,985,1494,2042
1629709770361,999,1485,2038
1629709770371,995,1488,2042
1629709770381,993,1494,2054
1629709770391,992,1505,2057
1629709770401,997,1519,2063
1629709770411,999,1530,2078
1629709770421,1002,1549,2093
1629709770431,1003,1572,2114
1629709770441,1008,1594,2135
1629709770451,1016,1622,2160
1629709770461,1018,1661,2193
1629709770471,1026,1702,2233
1629709770481,1025,1754,2281
1629709770491,1043,1794,2343
1629709770501,1056,1865,2405
1629709770511,1075,1935,2488
1629709770521,1080,2010,2557
1629709770531,1094,2097,2648
1629709770541,1106,2179,2718
1629709770551,1122,2252,2791
1629709770561,1141,2309,2846
1629709770571,1141,2336,2857
1629709770581,1140,2328,2857
1629709770591,1128,2317,2835
1629709770601,1116,2274,2776
1629709770611,1106,2208,2704
1629709770621,1091,2129,2623
1629709770631,1077,2038,2542
1629709770641,1057,1985,2468
1629709770651,1056,1897,2398
1629709770661,1043,1833,2337
1629709770671,1038,1783,2277
1629709770681,1023,1717,2226
1629709770691,1018,1667,2181
1629709770701,1010,1624,2147
1629709770711,1005,1582,2122
1629709770721,1009,1564,2102
1629709770731,999,1546,2084
1629709770741,999,1532,2076
1629709770751,998,1520,2066
1629709770761,997,1515,2060
1629709770771,999,1505,2058
1629709770781,998,1514,2061
1629709770791,996,1518,2066
1629709770801,995,1527,2071
1629709770811,999,1529,2079
1629709770821,991,1533,2086
1629709770831,995,1560,2100
1629709770841,994,1575,2107
1629709770851,1009,1596,2122
1629709770861,1011,1613,2148
1629709770871,1017,1641,2168
1629709770881,1022,1673,2199
1629709770891,1023,1713,2236
1629709770901,1034,1755,2286
1629709770911,1045,1812,2339
1629709770921,1060,1873,2402
1629709770931,1075,1942,2474
1629709770941,1087,2019,2555
1629709770951,1094,2108,2639
1629709770961,1105,2207,2728
1629709770971,1121,2290,2810
1629709770981,1133,2376,2880
1629709770991,1140,2411,2920
1629709771001,1139,2436,2919
1629709771011,1135,2417,2905
1629709771021,1134,2382,2873
1629709771031,1124,2325,2805
1629709771041,1110,2242,2716
1629709771051,1092,2143,2630
1629709771061,1078,2049,2539
1629709771071,1066,1955,2451
1629709771081,1053,1886,2391
1629709771091,1043,1827,2328
1629709771101,1037,1771,2275
1629709771111,1027,1714,2225
1629709771121,1029,1667,2188
1629709771131,1012,1632,2152
1629709771141,1002,1594,2131
1629709771151,1009,1575,2104
1629709771161,1013,1563,2091
1629709771171,1003,1541,2087
1629709771181,1002,1546,2073
1629709771191,998,1537,2080
1629709771201,996,1529,2078
1629709771211,998,1537,2076
1629709771221,1004,1538,2083
1629709771231,1001,1545,2090
1629709771241,1002,1551,2087
1629709771251,1007,1560,2096
1629709771261,1006,1574,2106
1629709771271,1009,1589,2122
1629709771281,1008,1611,2139
1629709771291,1003,1629,2159
1629709771301,1015,1642,2184
1629709771311,1022,1685,2214
1629709771321,1034,1725,2250
1629709771331,1038,1770,2286
1629709771341,1041,1831,2351
1629709771351,1054,1892,2405
1629709771361,1066,1956,2478
1629709771371,1079,2039,2555
1629709771381,1100,2121,2637
1629709771391,1104,2209,2716
1629709771401,1115,2285,2792
1629709771411,1124,2346,2852
1629709771421,1133,2387,2894
1629709771431,1141,2417,2923
1629709771441,1143,2431,2927
1629709771451,1137,2419,2902
1629709771461,1147,2379,2857
1629709771471,1116,2302,2790
1629709771481,1110,2212,2692
1629709771491,1100,2103,2605
1629709771501,1075,2021,2523
1629709771511,1063,1948,2454
1629709771521,1053,1887,2395
1629709771531,1044,1837,2332
1629709771541,1042,1782,2295
1629709771551,1029,1741,2249
1629709771561,1019,1698,2215
1629709771571,1020,1668,2181
1629709771581,1016,1638,2158
1629709771591,1011,1619,2139
1629709771601,1014,1604,2130
1629709771611,1005,1598,2120
1629709771621,1005,1592,2111
1629709771631,1008,1589,2102
1629709771641,1009,1590,2101
1629709771651,1008,1580,2097
1629709771661,1007,1585,2112
1629709771671,1007,1593,2118
1629709771681,1008,1601,2131
1629709771691,1009,1625,2140
1629709771701,1011,1640,2156
1629709771711,1016,1664,2181
1629709771721,1022,1691,2207
1629709771731,1029,1727,2240
1629709771741,1030,1774,2286
1629709771751,1042,1831,2327
1629709771761,1051,1896,2391
1629709771771,1068,1974,2460
1629709771781,1079,2048,2526
1629709771791,1091,2127,2626
1629709771801,1107,2220,2727
1629709771811,1123,2315,2830
1629709771821,1144,2429,2921
1629709771831,1157,2518,3009
1629709771841,1168,2588,3094
1629709771851,1169,2610,3090
1629709771861,1175,2579,3114
1629709771871,1172,2531,3080
1629709771881,1166,2470,3018
1629709771891,1151,2388,2917
1629709771901,1139,2302,2829
1629709771911,1114,2198,2719
1629709771921,1101,2091,2608
1629709771931,1084,1985,2525
1629709771941,1073,1910,2446
1629709771951,1052,1843,2393
1629709771961,1048,1805,2329
1629709771971,1030,1756,2282
1629709771981,1028,1718,2248
1629709771991,1027,1692,2215
1629709772001,1021,1663,2196
1629709772011,1016,1640,2171
1629709772021,1011,1619,2154
1629709772031,1010,1605,2135
1629709772041,1012,1587,2129
1629709772051,1011,1569,2118
1629709772061,1002,1558,2103
1629709772071,1002,1545,2106
1629709772081,1002,1541,2102
1629709772091,1002,1536,2090
1629709772101,997,1534,2089
1629709772111,1000,1526,2085
1629709772121,1003,1528,2083
1629709772131,997,1541,2097
1629709772141,998,1549,2109
1629709772151,1002,1551,2119
1629709772161,1000,1560,2118
1629709772171,1002,1578,2138
1629709772181,1012,1605,2159
1629709772191,1014,1635,2187
1629709772201,1022,1666,2213
1629709772211,1027,1705,2244
1629709772221,1035,1746,2283
1629709772231,1043,1788,2331
1629709772241,1049,1836,2384
1629709772251,1063,1883,2428
1629709772261,1069,1935,2479
1629709772271,1089,1975,2544
1629709772281,1102,2049,2620
1629709772291,1117,2111,2704
1629709772301,1140,2205,2793
1629709772311,1160,2305,2901
1629709772321,1165,2390,2985
1629709772331,1180,2425,3004
1629709772341,1182,2443,3022
1629709772351,1171,2363,2968
1629709772361,1158,2269,2893
1629709772371,1142,2210,2837
1629709772381,1129,2172,2795
1629709772391,1123,2184,2768
1629709772401,1120,2215,2763
1629709772411,1116,2199,2734
1629709772421,1104,2144,2670
1629709772431,1097,2085,2600
1629709772441,1074,1991,2521
1629709772451,1063,1924,2446
1629709772461,1050,1879,2396
1629709772471,1047,1825,2348
1629709772481,1044,1799,2317
1629709772491,1036,1779,2298
1629709772501,1034,1744,2273
1629709772511,1023,1709,2239
1629709772521,1022,1672,2216
1629709772531,1020,1653,2203
1629709772541,1020,1649,2193
1629709772551,1021,1643,2196
1629709772561,1018,1649,2201
1629709772571,1024,1665,2211
1629709772581,1024,1667,2205
1629709772591,1018,1678,2212
1629709772601,1025,1660,2212
1629709772611,1023,1673,2215
1629709772621,1021,1667,2225
1629709772631,1026,1682,2227
1629709772641,1029,1695,2242
1629709772651,1036,1725,2266
1629709772661,1038,1754,2290
1629709772671,1043,1775,2318
1629709772681,1046,1806,2341
1629709772691,1053,1842,2379
1629709772701,1061,1881,2423
1629709772711,1073,1956,2475
1629709772721,1070,1993,2500
1629709772731,1076,2008,2517
1629709772741,1085,2042,2552
1629709772751,1096,2054,2581
1629709772761,1096,2068,2623
1629709772771,1102,2126,2681
1629709772781,1110,2208,2730
1629709772791,1116,2272,2777
1629709772801,1126,2309,2790
1629709772811,1124,2261,2765
1629709772821,1113,2172,2711
1629709772831,1105,2078,2646
1629709772841,1091,2003,2582
1629709772851,1091,1977,2563
1629709772861,1091,2009,2566
1629709772871,1091,2020,2551
1629709772881,1086,2014,2550
1629709772891,1090,2033,2566
1629709772901,1086,1982,2521
1629709772911,1062,1905,2446
1629709772921,1059,1850,2402
1629709772931,1059,1798,2341
1629709772941,1036,1757,2310
1629709772951,1047,1743,2297
1629709772961,1031,1743,2291
1629709772971,1031,1741,2265
1629709772981,1026,1718,2239
1629709772991,1018,1665,2194
1629709773001,1018,1629,2164
1629709773011,1013,1613,2154
1629709773021,1004,1592,2149
1629709773031,1011,1607,2156
1629709773041,1011,1607,2158
1629709773051,1008,1602,2152
1629709773061,1009,1587,2140
1629709773071,1002,1575,2134
1629709773081,994,1565,2141
1629709773091,1003,1558,2124
1629709773101,999,1553,2129
1629709773111,998,1557,2132
1629709773121,1007,1578,2139
1629709773131,1004,1580,2137
1629709773141,1002,1570,2147
1629709773151,1002,1554,2145
1629709773161,1006,1525,2142
1629709773171,1002,1510,2146
1629709773181,1005,1525,2163
1629709773191,1019,1569,2199
1629709773201,1029,1626,2240
1629709773211,1056,1698,2288
1629709773221,1059,1720,2311
1629709773231,1070,1705,2330
1629709773241,1085,1702,2310
1629709773251,1060,1680,2295
1629709773261,1054,1655,2279
1629709773271,1030,1618,2283
1629709773281,1014,1590,2289
1629709773291,1021,1606,2334
1629709773301,1045,1669,2398
1629709773311,1047,1703,2442
1629709773321,1060,1738,2481
1629709773331,1062,1774,2517
1629709773341,1071,1804,2549
1629709773351,1074,1831,2567
1629709773361,1067,1851,2577
1629709773371,1055,1829,2543
1629709773381,1061,1790,2482
1629709773391,1051,1739,2416
1629709773401,1046,1704,2357
1629709773411,1022,1660,2295
1629709773421,1022,1628,2253
1629709773431,1024,1594,2218
