timestamp,green,ir,red
1629708999006,85825,239636,331647
1629708999016,85812,239606,331623
1629708999026,85792,239607,331599
1629708999036,85802,239586,331589
1629708999046,85771,239554,331587
1629708999056,85769,239561,331600
1629708999066,85739,239523,331583
1629708999076,85705,239495,331548
1629708999086,85691,239454,331535
1629708999096,85666,239482,331551
1629708999106,85630,239436,331548
1629708999116,85598,239461,331525
1629708999126,85579,239438,331501
1629708999136,85566,239424,331491
1629708999146,85567,239417,331469
1629708999156,85539,239377,331494
1629708999166,85503,239429,331497
1629708999176,85491,239409,331464
1629708999186,85478,239375,331476
1629708999196,85463,239371,331455
1629708999206,85445,239376,331459
1629708999216,85412,239358,331446
1629708999226,85409,239351,331436
1629708999236,85381,239359,331423
1629708999246,85397,239363,331407
1629708999256,85352,239327,331422
1629708999266,85353,239344,331386
1629708999276,85337,239333,331377
1629708999286,85352,239341,331385
1629708999296,85358,239291,331347
1629708999306,85319,239321,331369
1629708999316,85290,239295,331321
1629708999326,85299,239287,331305
1629708999336,85298,239266,331297
1629708999346,85252,239250,331286
1629708999356,85251,239247,331265
1629708999366,85244,239244,331244
1629708999376,85249,239250,331262
1629708999386,85235,239239,331223
1629708999396,85220,239223,331215
1629708999406,85215,239268,331232
1629708999416,85202,239242,331195
1629708999426,85206,239231,331200
1629708999436,85179,239222,331194
1629708999446,85181,239211,331158
1629708999456,85179,239222,331141
1629708999466,85172,239206,331182
1629708999476,85183,239197,331130
1629708999486,85179,239198,331143
1629708999496,85159,239220,331139
1629708999506,85161,239232,331126
1629708999516,85159,239205,331108
1629708999526,85166,239214,331125
1629708999536,85179,239170,331071
1629708999546,85198,239212,331113
1629708999556,85190,239176,331046
1629708999566,85191,239203,331020
1629708999576,85189,239172,331038
1629708999586,85178,239197,330965
1629708999596,85183,239159,330973
1629708999606,85203,239153,330984
1629708999616,85224,239213,330977
1629708999626,85227,239185,330941
1629708999636,85238,239194,330968
1629708999646,85258,239238,331040
1629708999656,85261,239246,331021
1629708999666,85260,239234,331040
1629708999676,85278,239275,331045
1629708999686,85298,239246,331065
1629708999696,85316,239261,331078
1629708999706,85297,239263,331130
1629708999716,85326,239257,331081
1629708999726,85347,239271,331095
1629708999736,85360,239308,331117
1629708999746,85347,239317,331108
1629708999756,85354,239327,331096
1629708999766,85371,239316,331129
1629708999776,85402,239331,331118
1629708999786,85417,239311,331123
1629708999796,85415,239337,331125
1629708999806,85451,239326,331086
1629708999816,85472,239384,331097
1629708999826,85456,239349,331107
1629708999836,85480,239358,331103
1629708999846,85506,239363,331135
1629708999856,85513,239348,331121
1629708999866,85527,239381,331126
1629708999876,85556,239377,331088
1629708999886,85540,239377,331137
1629708999896,85586,239379,331135
1629708999906,85605,239393,331136
1629708999916,85620,239401,331080
1629708999926,85648,239397,331103
1629708999936,85643,239404,331118
1629708999946,85663,239385,331099
1629708999956,85675,239384,331108
1629708999966,85709,239393,331086
1629708999976,85698,239388,331059
1629708999986,85709,239349,331057
1629708999996,85683,239315,331001
1629709000006,85673,239284,330990
1629709000016,85697,239274,330971
1629709000026,85650,239222,330969
1629709000036,85594,239227,330952
1629709000046,85595,239205,330933
1629709000056,85542,239147,330959
1629709000066,85519,239150,330917
1629709000076,85517,239143,330866
1629709000086,85470,239129,330906
1629709000096,85430,239091,330859
1629709000106,85409,239079,330855
1629709000116,85393,239081,330869
1629709000126,85369,239072,330834
1629709000136,85343,239074,330826
1629709000146,85321,239052,330862
1629709000156,85291,239038,330877
1629709000166,85260,239044,330844
1629709000176,85255,239038,330835
1629709000186,85234,239064,330844
1629709000196,85212,239028,330888
1629709000206,85186,239033,330848
1629709000216,85145,239034,330865
1629709000226,85153,239053,330862
1629709000236,85124,239040,330873
1629709000246,85124,239013,330864
1629709000256,85091,239068,330850
1629709000266,85094,239033,330845
1629709000276,85084,239021,330838
1629709000286,85088,239027,330855
1629709000296,85051,239043,330838
1629709000306,85046,239032,330840
1629709000316,85012,239011,330849
1629709000326,84995,239003,330841
1629709000336,84987,238989,330843
1629709000346,84962,238997,330867
1629709000356,84972,239014,330830
1629709000366,84951,239006,330860
1629709000376,84963,239014,330854
1629709000386,84957,239037,330838
1629709000396,84939,239001,330874
1629709000406,84936,239029,330852
1629709000416,84916,239016,330840
1629709000426,84929,239041,330859
1629709000436,84922,239052,330840
1629709000446,84899,239062,330835
1629709000456,84890,239037,330843
1629709000466,84892,239015,330818
1629709000476,84898,239046,330820
1629709000486,84890,239007,330789
1629709000496,84900,239048,330820
1629709000506,84920,239025,330789
1629709000516,84929,239099,330834
1629709000526,84921,239053,330843
1629709000536,84943,239066,330847
1629709000546,84935,239060,330840
1629709000556,84927,239085,330856
1629709000566,84945,239088,330869
1629709000576,84937,239124,330865
1629709000586,84978,239097,330903
1629709000596,84975,239095,330835
1629709000606,84974,239109,330876
1629709000616,84991,239102,330873
1629709000626,84980,239133,330887
1629709000636,84986,239097,330868
1629709000646,85023,239147,330862
1629709000656,85023,239127,330937
1629709000666,85039,239170,330894
1629709000676,85015,239152,330896
1629709000686,85047,239172,330924
1629709000696,85083,239177,330905
1629709000706,85090,239188,330912
1629709000716,85078,239193,330928
1629709000726,85092,239211,330937
1629709000736,85105,239195,330937
1629709000746,85129,239206,330954
1629709000756,85116,239213,330960
1629709000766,85150,239218,330962
1629709000776,85171,239241,330964
1629709000786,85197,239212,330944
1629709000796,85192,239228,330968
1629709000806,85212,239247,330951
1629709000816,85224,239249,330944
1629709000826,85247,239287,330956
1629709000836,85263,239268,330969
1629709000846,85280,239309,331011
1629709000856,85302,239261,330998
1629709000866,85323,239274,331001
1629709000876,85328,239314,331014
1629709000886,85346,239311,331038
1629709000896,85372,239317,331027
1629709000906,85387,239305,330995
1629709000916,85408,239341,331023
1629709000926,85427,239355,331014
1629709000936,85460,239336,331030
1629709000946,85472,239389,331002
1629709000956,85481,239367,331037
1629709000966,85500,239369,331018
1629709000976,85522,239374,331054
1629709000986,85519,239361,331028
1629709000996,85551,239323,330989
1629709001006,85535,239319,330988
1629709001016,85495,239257,330956
1629709001026,85498,239254,330926
1629709001036,85458,239210,330920
1629709001046,85446,239205,330940
1629709001056,85417,239139,330913
1629709001066,85383,239132,330921
1629709001076,85372,239166,330870
1629709001086,85345,239098,330914
1629709001096,85308,239101,330883
1629709001106,85285,239116,330941
1629709001116,85246,239151,330934
1629709001126,85223,239100,330939
1629709001136,85199,239102,330957
1629709001146,85186,239102,330960
1629709001156,85168,239094,330990
1629709001166,85150,239097,330988
1629709001176,85120,239120,330987
1629709001186,85098,239075,330989
1629709001196,85071,239090,331005
1629709001206,85052,239120,331008
1629709001216,85018,239107,331021
1629709001226,84992,239083,331018
1629709001236,84987,239089,330979
1629709001246,84973,239158,330998
1629709001256,84966,239089,330978
1629709001266,84933,239116,330980
1629709001276,84918,239072,330953
1629709001286,84913,239058,330950
1629709001296,84892,239084,330910
1629709001306,84884,239035,330931
1629709001316,84873,239060,330891
1629709001326,84863,239048,330904
1629709001336,84852,239057,330853
1629709001346,84832,239078,330910
1629709001356,84816,239049,330898
1629709001366,84810,239061,330918
1629709001376,84800,239043,330917
1629709001386,84803,239063,330912
1629709001396,84787,239032,330897
1629709001406,84771,239071,330894
1629709001416,84768,239030,330858
1629709001426,84769,239022,330884
1629709001436,84756,239029,330825
1629709001446,84754,239038,330815
1629709001456,84752,239033,330842
1629709001466,84749,239022,330811
1629709001476,84739,239069,330842
1629709001486,84720,239072,330837
1629709001496,84769,239071,330851
1629709001506,84769,239053,330881
1629709001516,84764,239091,330889
1629709001526,84752,239111,330900
1629709001536,84750,239092,330895
1629709001546,84766,239088,330898
1629709001556,84806,239078,330891
1629709001566,84792,239134,330869
1629709001576,84792,239086,330859
1629709001586,84779,239112,330855
1629709001596,84807,239085,330861
1629709001606,84790,239111,330853
1629709001616,84812,239121,330846
1629709001626,84833,239111,330863
1629709001636,84846,239123,330832
1629709001646,84863,239146,330868
1629709001656,84876,239164,330917
1629709001666,84876,239189,330904
1629709001676,84903,239233,330971
1629709001686,84913,239221,330976
1629709001696,84928,239226,331015
1629709001706,84931,239248,331013
1629709001716,84959,239256,331046
1629709001726,84970,239253,331010
1629709001736,85010,239277,331038
1629709001746,85017,239262,331066
1629709001756,84983,239261,331053
1629709001766,85022,239296,331031
1629709001776,85027,239306,331014
1629709001786,85042,239291,330995
1629709001796,85070,239294,331015
1629709001806,85087,239279,330965
1629709001816,85113,239297,330969
1629709001826,85113,239317,330994
1629709001836,85125,239309,331002
1629709001846,85166,239389,331044
1629709001856,85172,239353,331010
1629709001866,85183,239371,331070
1629709001876,85211,239369,331086
1629709001886,85231,239360,331074
1629709001896,85255,239417,331071
1629709001906,85284,239418,331046
1629709001916,85293,239390,331098
1629709001926,85306,239440,331077
1629709001936,85307,239438,331100
1629709001946,85345,239417,331069
1629709001956,85358,239459,331100
1629709001966,85389,239432,331045
1629709001976,85400,239442,331064
1629709001986,85429,239439,331069
1629709001996,85441,239449,331084
1629709002006,85447,239405,331043
1629709002016,85435,239405,331071
1629709002026,85440,239394,331082
1629709002036,85430,239356,331041
1629709002046,85415,239333,331093
1629709002056,85388,239316,331034
1629709002066,85354,239325,331056
1629709002076,85311,239304,331013
1629709002086,85271,239262,331012
1629709002096,85278,239246,331057
1629709002106,85231,239279,331006
1629709002116,85207,239275,331024
1629709002126,85201,239255,331001
1629709002136,85194,239277,331024
1629709002146,85170,239270,331010
1629709002156,85154,239252,331046
1629709002166,85130,239236,331006
1629709002176,85104,239215,331020
1629709002186,85095,239269,331044
1629709002196,85077,239268,331037
1629709002206,85080,239247,331064
1629709002216,85057,239234,331042
1629709002226,85047,239247,331044
1629709002236,85041,239265,331066
1629709002246,85033,239291,331058
1629709002256,84996,239285,331132
1629709002266,84989,239265,331067
1629709002276,84999,239260,331046
1629709002286,84978,239243,331047
1629709002296,85007,239226,330983
1629709002306,84999,239197,330967
1629709002316,84978,239199,330945
1629709002326,84957,239187,330912
1629709002336,84940,239185,330873
1629709002346,84927,239132,330879
1629709002356,84921,239149,330861
1629709002366,84931,239125,330850
1629709002376,84924,239122,330840
1629709002386,84929,239138,330835
1629709002396,84912,239139,330788
1629709002406,84913,239114,330808
1629709002416,84912,239100,330795
1629709002426,84914,239100,330794
1629709002436,84891,239129,330776
1629709002446,84885,239112,330788
1629709002456,84917,239115,330831
1629709002466,84910,239112,330755
1629709002476,84918,239119,330778
1629709002486,84919,239105,330704
1629709002496,84914,239114,330724
1629709002506,84919,239126,330728
1629709002516,84927,239102,330750
1629709002526,84968,239140,330764
1629709002536,84974,239156,330706
1629709002546,84975,239142,330756
1629709002556,84992,239166,330774
1629709002566,85000,239139,330738
1629709002576,85001,239144,330750
1629709002586,85005,239195,330762
1629709002596,85018,239153,330794
1629709002606,85043,239158,330797
1629709002616,85063,239196,330744
1629709002626,85062,239216,330844
1629709002636,85079,239192,330791
1629709002646,85109,239236,330798
1629709002656,85126,239256,330835
1629709002666,85137,239258,330853
1629709002676,85136,239286,330867
1629709002686,85166,239263,330878
1629709002696,85171,239310,330867
1629709002706,85205,239304,330942
1629709002716,85232,239291,330922
1629709002726,85236,239338,330917
1629709002736,85239,239332,330940
1629709002746,85254,239371,330959
1629709002756,85274,239379,331001
1629709002766,85306,239382,330966
1629709002776,85316,239385,331027
1629709002786,85352,239409,331025
1629709002796,85361,239424,331041
1629709002806,85379,239417,331017
1629709002816,85381,239426,331009
1629709002826,85393,239501,331014
1629709002836,85414,239451,331061
1629709002846,85459,239470,331027
1629709002856,85474,239512,331066
1629709002866,85479,239489,331019
1629709002876,85481,239514,331052
1629709002886,85502,239449,331017
1629709002896,85527,239450,331047
1629709002906,85534,239462,331079
1629709002916,85526,239482,331065
1629709002926,85507,239414,331059
1629709002936,85504,239413,331065
1629709002946,85476,239398,331052
1629709002956,85450,239363,331059
1629709002966,85446,239363,331062
1629709002976,85396,239334,331072
1629709002986,85370,239345,331060
1629709002996,85354,239345,331055
1629709003006,85334,239360,331107
1629709003016,85314,239365,331083
1629709003026,85335,239323,331093
1629709003036,85283,239338,331067
1629709003046,85288,239337,331105
1629709003056,85291,239324,331104
1629709003066,85260,239341,331105
1629709003076,85238,239349,331077
1629709003086,85221,239373,331120
1629709003096,85233,239347,331107
1629709003106,85225,239407,331171
1629709003116,85225,239386,331178
1629709003126,85213,239378,331232
1629709003136,85215,239401,331243
1629709003146,85210,239434,331252
1629709003156,85204,239449,331272
1629709003166,85185,239467,331252
1629709003176,85196,239461,331263
1629709003186,85173,239442,331202
1629709003196,85133,239457,331208
1629709003206,85155,239411,331227
1629709003216,85135,239448,331201
1629709003226,85126,239424,331171
1629709003236,85109,239456,331207
1629709003246,85101,239400,331196
1629709003256,85101,239426,331209
1629709003266,85081,239418,331202
1629709003276,85109,239465,331214
1629709003286,85099,239422,331201
1629709003296,85092,239474,331242
1629709003306,85081,239429,331241
1629709003316,85084,239462,331259
1629709003326,85081,239466,331248
1629709003336,85103,239470,331267
1629709003346,85071,239481,331282
1629709003356,85104,239438,331283
1629709003366,85092,239488,331240
1629709003376,85100,239436,331233
1629709003386,85086,239481,331235
1629709003396,85106,239519,331249
1629709003406,85107,239519,331247
1629709003416,85108,239484,331211
1629709003426,85115,239523,331236
1629709003436,85114,239504,331234
1629709003446,85133,239507,331235
1629709003456,85132,239530,331251
1629709003466,85134,239524,331259
1629709003476,85156,239546,331304
1629709003486,85166,239540,331311
1629709003496,85171,239543,331322
1629709003506,85169,239588,331359
1629709003516,85189,239582,331301
1629709003526,85203,239577,331349
1629709003536,85229,239620,331339
1629709003546,85220,239627,331362
1629709003556,85229,239607,331330
1629709003566,85238,239611,331311
1629709003576,85272,239619,331321
1629709003586,85277,239625,331357
1629709003596,85284,239587,331364
1629709003606,85312,239633,331335
1629709003616,85327,239665,331359
1629709003626,85319,239647,331385
1629709003636,85332,239661,331379
1629709003646,85369,239661,331417
1629709003656,85377,239682,331403
1629709003666,85388,239723,331457
1629709003676,85415,239717,331469
1629709003686,85422,239751,331489
1629709003696,85459,239745,331476
1629709003706,85470,239695,331460
1629709003716,85460,239728,331472
1629709003726,85438,239696,331452
1629709003736,85434,239707,331435
1629709003746,85419,239649,331432
1629709003756,85396,239632,331427
1629709003766,85353,239616,331383
1629709003776,85306,239572,331362
1629709003786,85270,239570,331340
1629709003796,85241,239547,331361
1629709003806,85207,239550,331384
1629709003816,85196,239530,331346
1629709003826,85139,239558,331396
1629709003836,85124,239531,331359
1629709003846,85113,239525,331376
1629709003856,85080,239491,331345
1629709003866,85024,239478,331317
1629709003876,85004,239471,331315
1629709003886,84976,239483,331359
1629709003896,84973,239487,331348
1629709003906,84937,239477,331364
1629709003916,84910,239494,331341
1629709003926,84879,239444,331341
1629709003936,84859,239457,331315
1629709003946,84832,239434,331295
1629709003956,84793,239466,331301
1629709003966,84786,239440,331310
1629709003976,84759,239508,331350
1629709003986,84779,239455,331350
1629709003996,84759,239467,331384
1629709004006,84740,239467,331336
1629709004016,84725,239471,331350
1629709004026,84704,239483,331358
1629709004036,84683,239489,331333
1629709004046,84666,239475,331357
1629709004056,84637,239450,331351
1629709004066,84624,239464,331366
1629709004076,84622,239461,331346
1629709004086,84596,239411,331392
1629709004096,84578,239489,331364
1629709004106,84560,239480,331373
1629709004116,84532,239460,331366
1629709004126,84517,239467,331370
1629709004136,84508,239483,331370
1629709004146,84512,239513,331367
1629709004156,84506,239503,331366
1629709004166,84503,239468,331403
1629709004176,84496,239482,331437
1629709004186,84480,239504,331388
1629709004196,84467,239490,331424
1629709004206,84464,239521,331404
1629709004216,84455,239513,331439
1629709004226,84452,239507,331448
1629709004236,84475,239537,331422
1629709004246,84468,239521,331434
1629709004256,84446,239505,331440
1629709004266,84467,239515,331432
1629709004276,84472,239550,331430
1629709004286,84475,239523,331437
1629709004296,84489,239560,331411
1629709004306,84472,239552,331423
1629709004316,84479,239567,331402
1629709004326,84483,239544,331442
1629709004336,84484,239575,331433
1629709004346,84499,239574,331433
1629709004356,84468,239573,331435
1629709004366,84475,239591,331441
1629709004376,84480,239587,331463
1629709004386,84491,239588,331490
1629709004396,84522,239617,331467
1629709004406,84519,239606,331502
1629709004416,84536,239609,331510
1629709004426,84550,239653,331515
1629709004436,84543,239663,331545
1629709004446,84554,239645,331538
1629709004456,84567,239677,331520
1629709004466,84585,239661,331560
1629709004476,84585,239693,331540
1629709004486,84602,239667,331579
1629709004496,84620,239661,331518
1629709004506,84636,239714,331548
1629709004516,84626,239704,331569
1629709004526,84648,239704,331563
1629709004536,84655,239709,331563
1629709004546,84639,239671,331557
1629709004556,84636,239650,331526
1629709004566,84613,239623,331530
1629709004576,84588,239590,331523
1629709004586,84550,239591,331514
1629709004596,84527,239589,331489
1629709004606,84479,239544,331525
1629709004616,84427,239535,331491
1629709004626,84398,239497,331458
1629709004636,84336,239502,331412
1629709004646,84284,239436,331406
1629709004656,84255,239439,331404
1629709004666,84209,239403,331396
1629709004676,84170,239441,331400
1629709004686,84136,239434,331397
1629709004696,84087,239389,331396
1629709004706,84036,239359,331356
1629709004716,83985,239357,331407
1629709004726,83958,239323,331388
1629709004736,83930,239311,331325
1629709004746,83874,239303,331351
1629709004756,83838,239313,331328
1629709004766,83780,239280,331319
1629709004776,83738,239293,331326
1629709004786,83703,239290,331352
1629709004796,83696,239260,331351
1629709004806,83673,239286,331320
1629709004816,83634,239280,331292
1629709004826,83613,239278,331252
1629709004836,83577,239237,331285
1629709004846,83536,239265,331273
1629709004856,83504,239231,331246
1629709004866,83486,239238,331204
1629709004876,83467,239234,331226
1629709004886,83445,239234,331217
1629709004896,83418,239181,331229
1629709004906,83395,239211,331204
1629709004916,83375,239213,331186
1629709004926,83340,239183,331215
1629709004936,83313,239193,331219
1629709004946,83322,239183,331198
1629709004956,83286,239169,331175
1629709004966,83279,239162,331179
1629709004976,83259,239154,331144
1629709004986,83245,239110,331112
1629709004996,83202,239145,331091
1629709005006,83192,239118,331105
1629709005016,83199,239094,331066
1629709005026,83168,239089,331051
1629709005036,83177,239107,331021
1629709005046,83173,239106,331043
1629709005056,83172,239084,331008
1629709005066,83168,239142,331064
1629709005076,83163,239093,331017
1629709005086,83155,239076,331008
1629709005096,83144,239096,331046
1629709005106,83132,239093,331011
1629709005116,83144,239062,331006
1629709005126,83148,239102,330991
1629709005136,83154,239093,331003
1629709005146,83136,239100,331009
1629709005156,83153,239111,331006
1629709005166,83136,239059,330990
1629709005176,83132,239097,330977
1629709005186,83145,239107,330940
1629709005196,83143,239096,331013
1629709005206,83163,239091,330982
1629709005216,83176,239131,330965
1629709005226,83187,239085,330992
1629709005236,83172,239112,330991
1629709005246,83166,239120,331027
1629709005256,83188,239109,331000
1629709005266,83186,239131,331009
1629709005276,83218,239105,331046
1629709005286,83211,239133,331000
1629709005296,83233,239145,331012
1629709005306,83240,239117,330959
1629709005316,83250,239117,330956
1629709005326,83252,239123,330943
1629709005336,83272,239087,330930
1629709005346,83246,239105,330922
1629709005356,83267,239103,330940
1629709005366,83290,239085,330911
1629709005376,83284,239102,330897
1629709005386,83322,239104,330896
1629709005396,83340,239128,330879
1629709005406,83352,239113,330927
1629709005416,83370,239132,330928
1629709005426,83378,239122,330948
1629709005436,83391,239149,330931
1629709005446,83420,239119,330975
1629709005456,83386,239088,330966
1629709005466,83387,239061,330916
1629709005476,83352,239053,330883
1629709005486,83336,239020,330867
1629709005496,83277,238998,330837
1629709005506,83245,238967,330859
1629709005516,83202,238921,330793
1629709005526,83179,238936,330811
1629709005536,83137,238915,330830
1629709005546,83085,238891,330771
1629709005556,83060,238895,330765
1629709005566,83022,238880,330743
1629709005576,82966,238827,330802
1629709005586,82932,238817,330704
1629709005596,82899,238795,330697
1629709005606,82867,238754,330663
1629709005616,82820,238730,330637
1629709005626,82778,238699,330585
1629709005636,82749,238693,330592
1629709005646,82712,238653,330535
1629709005656,82661,238629,330462
1629709005666,82627,238595,330447
1629709005676,82617,238574,330404
1629709005686,82584,238505,330347
1629709005696,82553,238489,330306
1629709005706,82524,238497,330258
1629709005716,82486,238461,330227
1629709005726,82477,238456,330212
1629709005736,82457,238440,330201
1629709005746,82428,238423,330136
1629709005756,82415,238400,330140
1629709005766,82408,238411,330099
1629709005776,82402,238337,330132
1629709005786,82368,238340,330098
1629709005796,82348,238341,330060
1629709005806,82336,238328,330078
1629709005816,82307,238333,330030
1629709005826,82296,238353,330065
1629709005836,82298,238310,330020
1629709005846,82265,238329,330004
1629709005856,82257,238282,330000
1629709005866,82258,238285,329994
1629709005876,82262,238264,329959
1629709005886,82256,238267,329944
1629709005896,82247,238244,329942
1629709005906,82235,238287,329955
1629709005916,82237,238279,329928
1629709005926,82237,238271,329896
1629709005936,82239,238286,329938
1629709005946,82222,238259,329919
1629709005956,82243,238263,329923
1629709005966,82253,238271,329928
1629709005976,82247,238229,329888
1629709005986,82232,238275,329871
1629709005996,82238,238252,329901
1629709006006,82258,238243,329893
1629709006016,82265,238261,329870
1629709006026,82268,238266,329853
1629709006036,82275,238239,329882
1629709006046,82255,238266,329892
1629709006056,82272,238247,329834
1629709006066,82290,238263,329870
1629709006076,82291,238247,329883
1629709006086,82311,238287,329859
1629709006096,82329,238231,329875
1629709006106,82314,238291,329884
1629709006116,82357,238276,329859
1629709006126,82357,238280,329876
1629709006136,82379,238263,329868
1629709006146,82396,238282,329913
1629709006156,82389,238334,329867
1629709006166,82404,238331,329950
1629709006176,82419,238336,329936
1629709006186,82461,238312,329926
1629709006196,82472,238361,329961
1629709006206,82496,238368,329969
1629709006216,82504,238351,329923
1629709006226,82514,238371,329953
1629709006236,82545,238345,329949
1629709006246,82550,238367,329924
1629709006256,82566,238401,329963
1629709006266,82601,238364,329959
1629709006276,82606,238405,330000
1629709006286,82638,238366,329972
1629709006296,82650,238377,329958
1629709006306,82659,238356,329969
1629709006316,82682,238378,329940
1629709006326,82693,238388,329958
1629709006336,82735,238437,329953
1629709006346,82757,238394,329929
1629709006356,82788,238444,330002
1629709006366,82814,238431,330026
1629709006376,82810,238444,330016
1629709006386,82851,238460,330000
1629709006396,82875,238490,330031
1629709006406,82900,238504,330055
1629709006416,82931,238505,330067
1629709006426,82947,238526,330036
1629709006436,82945,238545,330079
1629709006446,82991,238537,330103
1629709006456,83030,238557,330104
1629709006466,83035,238553,330129
1629709006476,83033,238500,330078
1629709006486,83045,238505,330072
1629709006496,83035,238488,330078
1629709006506,83027,238463,330087
1629709006516,83022,238444,330077
1629709006526,82986,238394,330070
1629709006536,82933,238398,330088
1629709006546,82909,238379,330083
1629709006556,82884,238396,330073
1629709006566,82861,238388,330070
1629709006576,82842,238338,330062
1629709006586,82811,238340,330062
1629709006596,82789,238324,330010
1629709006606,82781,238337,329996
1629709006616,82740,238327,330019
1629709006626,82710,238306,330030
1629709006636,82701,238272,330033
1629709006646,82672,238298,330040
1629709006656,82656,238336,330062
1629709006666,82630,238300,330017
1629709006676,82617,238276,330051
1629709006686,82609,238279,330073
1629709006696,82577,238264,330058
1629709006706,82551,238302,330113
1629709006716,82541,238313,330077
1629709006726,82533,238319,330115
1629709006736,82545,238355,330104
1629709006746,82524,238334,330084
1629709006756,82516,238332,330118
1629709006766,82499,238351,330106
1629709006776,82499,238301,330105
1629709006786,82468,238317,330106
1629709006796,82461,238329,330118
1629709006806,82448,238309,330100
1629709006816,82434,238340,330152
1629709006826,82453,238332,330176
1629709006836,82437,238344,330190
1629709006846,82436,238356,330202
1629709006856,82434,238364,330183
1629709006866,82413,238364,330266
1629709006876,82457,238364,330260
1629709006886,82415,238395,330257
1629709006896,82414,238386,330240
1629709006906,82413,238377,330233
1629709006916,82421,238380,330270
1629709006926,82410,238386,330250
1629709006936,82427,238392,330235
1629709006946,82393,238361,330216
1629709006956,82403,238402,330202
1629709006966,82405,238413,330237
1629709006976,82422,238392,330231
1629709006986,82448,238410,330233
1629709006996,82437,238412,330222
1629709007006,82459,238409,330267
1629709007016,82454,238422,330246
1629709007026,82466,238407,330264
1629709007036,82500,238432,330240
1629709007046,82481,238413,330243
1629709007056,82495,238414,330233
1629709007066,82513,238473,330241
1629709007076,82530,238432,330228
1629709007086,82554,238430,330249
1629709007096,82566,238451,330174
1629709007106,82570,238471,330240
1629709007116,82561,238455,330228
1629709007126,82588,238462,330201
1629709007136,82618,238479,330226
1629709007146,82632,238485,330203
1629709007156,82647,238453,330254
1629709007166,82663,238477,330218
1629709007176,82673,238480,330250
1629709007186,82720,238526,330248
1629709007196,82698,238507,330259
1629709007206,82722,238522,330263
1629709007216,82741,238535,330243
1629709007226,82775,238546,330254
1629709007236,82793,238537,330295
1629709007246,82807,238553,330260
1629709007256,82834,238523,330283
1629709007266,82827,238541,330248
1629709007276,82856,238566,330260
1629709007286,82872,238550,330236
1629709007296,82902,238561,330229
1629709007306,82938,238563,330223
1629709007316,82944,238578,330205
1629709007326,82949,238547,330233
1629709007336,82994,238564,330205
1629709007346,83007,238562,330221
1629709007356,83016,238551,330187
1629709007366,83045,238566,330172
1629709007376,83065,238553,330183
1629709007386,83115,238582,330153
1629709007396,83132,238532,330167
1629709007406,83170,238554,330135
1629709007416,83190,238561,330200
1629709007426,83215,238614,330212
1629709007436,83220,238606,330194
1629709007446,83246,238597,330195
1629709007456,83272,238639,330170
1629709007466,83319,238612,330210
1629709007476,83352,238637,330200
1629709007486,83360,238644,330168
1629709007496,83399,238627,330218
1629709007506,83413,238673,330211
1629709007516,83439,238665,330148
1629709007526,83468,238637,330196
1629709007536,83490,238644,330171
1629709007546,83521,238616,330171
1629709007556,83540,238613,330138
1629709007566,83544,238618,330205
1629709007576,83540,238583,330175
1629709007586,83529,238573,330154
1629709007596,83495,238532,330178
1629709007606,83482,238512,330175
1629709007616,83477,238520,330178
1629709007626,83475,238515,330179
1629709007636,83472,238487,330173
1629709007646,83440,238481,330156
1629709007656,83416,238488,330169
1629709007666,83430,238491,330145
1629709007676,83426,238445,330100
1629709007686,83405,238483,330082
1629709007696,83400,238462,330100
1629709007706,83404,238443,330134
1629709007716,83377,238480,330109
1629709007726,83382,238465,330154
1629709007736,83363,238449,330125
1629709007746,83389,238458,330131
1629709007756,83365,238455,330140
1629709007766,83359,238472,330135
1629709007776,83362,238486,330125
1629709007786,83352,238475,330164
1629709007796,83379,238459,330127
1629709007806,83403,238510,330104
1629709007816,83368,238450,330139
1629709007826,83373,238431,330111
1629709007836,83389,238453,330099
1629709007846,83396,238406,330080
1629709007856,83383,238440,330070
1629709007866,83403,238444,330076
1629709007876,83405,238440,330045
1629709007886,83387,238442,330057
1629709007896,83398,238442,330064
1629709007906,83396,238450,330106
1629709007916,83423,238455,330133
1629709007926,83423,238438,330109
1629709007936,83429,238473,330147
1629709007946,83434,238463,330129
1629709007956,83438,238483,330128
1629709007966,83444,238467,330150
1629709007976,83457,238489,330151
1629709007986,83465,238514,330111
1629709007996,83480,238497,330128
1629709008006,83502,238508,330153
1629709008016,83506,238489,330137
1629709008026,83516,238507,330157
1629709008036,83531,238519,330171
1629709008046,83549,238517,330192
1629709008056,83558,238587,330170
1629709008066,83584,238518,330178
1629709008076,83582,238586,330203
1629709008086,83606,238596,330196
1629709008096,83619,238584,330206
1629709008106,83638,238600,330213
1629709008116,83652,238568,330279
1629709008126,83695,238584,330204
1629709008136,83716,238595,330236
1629709008146,83730,238583,330271
1629709008156,83754,238643,330258
1629709008166,83755,238652,330249
1629709008176,83792,238642,330294
1629709008186,83799,238667,330230
1629709008196,83829,238648,330287
1629709008206,83856,238676,330281
1629709008216,83877,238651,330264
1629709008226,83900,238686,330260
1629709008236,83908,238709,330279
1629709008246,83910,238672,330281
1629709008256,83942,238691,330269
1629709008266,83967,238680,330336
1629709008276,84014,238703,330294
1629709008286,84031,238724,330309
1629709008296,84058,238741,330295
1629709008306,84070,238734,330334
1629709008316,84104,238719,330288
1629709008326,84109,238741,330345
1629709008336,84126,238740,330344
1629709008346,84158,238777,330352
1629709008356,84195,238757,330361
1629709008366,84226,238759,330335
1629709008376,84245,238792,330346
1629709008386,84267,238740,330348
1629709008396,84298,238798,330342
1629709008406,84320,238825,330322
1629709008416,84355,238824,330375
1629709008426,84368,238816,330386
1629709008436,84405,238810,330388
1629709008446,84445,238843,330396
1629709008456,84480,238837,330441
1629709008466,84490,238883,330413
1629709008476,84507,238894,330448
1629709008486,84548,238898,330421
1629709008496,84576,238916,330428
1629709008506,84596,238917,330466
1629709008516,84639,238887,330432
1629709008526,84662,238934,330450
1629709008536,84680,238929,330434
1629709008546,84719,238923,330428
1629709008556,84733,238940,330419
1629709008566,84752,238920,330457
1629709008576,84781,238923,330441
1629709008586,84804,238930,330455
1629709008596,84842,238916,330459
1629709008606,84823,238911,330471
1629709008616,84858,238888,330477
1629709008626,84853,238885,330437
1629709008636,84864,238859,330495
1629709008646,84859,238844,330471
1629709008656,84835,238795,330442
1629709008666,84836,238820,330447
1629709008676,84869,238774,330386
1629709008686,84844,238803,330416
1629709008696,84852,238776,330392
1629709008706,84860,238772,330367
1629709008716,84857,238750,330329
1629709008726,84840,238753,330370
1629709008736,84847,238734,330333
1629709008746,84851,238748,330374
1629709008756,84862,238711,330344
1629709008766,84891,238710,330340
1629709008776,84899,238736,330349
1629709008786,84900,238763,330339
1629709008796,84902,238754,330309
1629709008806,84901,238744,330361
1629709008816,84903,238737,330333
1629709008826,84914,238773,330349
1629709008836,84925,238766,330346
1629709008846,84937,238740,330354
1629709008856,84970,238762,330315
1629709008866,84969,238772,330348
1629709008876,84969,238744,330353
1629709008886,84986,238745,330347
1629709008896,85001,238788,330361
1629709008906,85020,238778,330366
1629709008916,85040,238768,330371
1629709008926,85050,238772,330366
1629709008936,85066,238815,330442
1629709008946,85079,238815,330424
1629709008956,85076,238829,330438
1629709008966,85097,238793,330437
1629709008976,85105,238818,330463
1629709008986,85104,238791,330432
1629709008996,85114,238823,330441
1629709009006,85138,238829,330448
1629709009016,85147,238829,330416
1629709009026,85165,238825,330444
1629709009036,85197,238840,330426
1629709009046,85189,238844,330425
1629709009056,85195,238851,330479
1629709009066,85217,238864,330424
1629709009076,85229,238871,330466
1629709009086,85271,238846,330439
1629709009096,85299,238894,330474
1629709009106,85309,238895,330466
1629709009116,85325,238891,330465
1629709009126,85337,238876,330471
1629709009136,85363,238900,330476
1629709009146,85389,238904,330497
1629709009156,85390,238921,330490
1629709009166,85402,238924,330479
1629709009176,85446,238965,330478
1629709009186,85462,238951,330483
1629709009196,85485,238929,330508
1629709009206,85520,238931,330481
1629709009216,85500,238980,330504
1629709009226,85524,238953,330485
1629709009236,85541,238973,330517
1629709009246,85569,238970,330519
1629709009256,85614,239013,330517
1629709009266,85638,239026,330555
1629709009276,85664,239020,330555
1629709009286,85686,239004,330545
1629709009296,85687,239020,330579
1629709009306,85709,239062,330577
1629709009316,85718,239045,330580
1629709009326,85776,239052,330568
1629709009336,85808,239036,330533
1629709009346,85786,239047,330531
1629709009356,85813,239071,330552
1629709009366,85842,239059,330559
1629709009376,85858,239053,330542
1629709009386,85908,239074,330559
1629709009396,85920,239054,330555
1629709009406,85951,239081,330525
1629709009416,85975,239116,330553
1629709009426,85988,239100,330569
1629709009436,86013,239144,330596
1629709009446,86026,239148,330611
1629709009456,86073,239155,330616
1629709009466,86083,239136,330633
1629709009476,86106,239124,330626
1629709009486,86155,239168,330617
1629709009496,86167,239173,330573
1629709009506,86192,239216,330655
1629709009516,86204,239196,330616
1629709009526,86225,239193,330614
1629709009536,86257,239193,330644
1629709009546,86265,239173,330612
1629709009556,86292,239231,330645
1629709009566,86343,239221,330638
1629709009576,86370,239231,330672
1629709009586,86389,239230,330619
1629709009596,86419,239205,330666
1629709009606,86437,239213,330650
1629709009616,86439,239195,330670
1629709009626,86442,239172,330644
1629709009636,86432,239181,330638
1629709009646,86432,239105,330647
1629709009656,86434,239120,330636
1629709009666,86422,239118,330618
1629709009676,86412,239103,330612
1629709009686,86429,239092,330591
1629709009696,86425,239096,330573
1629709009706,86426,239065,330546
1629709009716,86400,239045,330585
1629709009726,86437,239058,330592
1629709009736,86439,239013,330568
1629709009746,86443,239055,330598
1629709009756,86460,239062,330576
1629709009766,86462,239049,330582
1629709009776,86445,239058,330630
1629709009786,86462,239073,330644
1629709009796,86470,239093,330605
1629709009806,86501,239091,330653
1629709009816,86513,239070,330668
1629709009826,86535,239078,330651
1629709009836,86535,239119,330658
1629709009846,86542,239111,330704
1629709009856,86540,239120,330708
1629709009866,86556,239124,330670
1629709009876,86550,239126,330695
1629709009886,86595,239162,330698
1629709009896,86601,239151,330676
1629709009906,86603,239153,330694
1629709009916,86626,239142,330706
1629709009926,86637,239136,330704
1629709009936,86647,239161,330709
1629709009946,86650,239156,330734
1629709009956,86658,239178,330759
1629709009966,86677,239148,330752
1629709009976,86667,239152,330786
1629709009986,86684,239208,330768
1629709009996,86687,239190,330734
1629709010006,86735,239192,330771
1629709010016,86715,239225,330808
1629709010026,86728,239213,330777
1629709010036,86742,239210,330789
1629709010046,86768,239215,330806
1629709010056,86797,239259,330810
1629709010066,86793,239235,330830
1629709010076,86832,239289,330839
1629709010086,86839,239279,330851
1629709010096,86856,239287,330869
1629709010106,86856,239321,330893
1629709010116,86865,239349,330886
1629709010126,86905,239343,330889
1629709010136,86910,239316,330922
1629709010146,86936,239326,330940
1629709010156,86956,239344,330927
1629709010166,86984,239368,330899
1629709010176,86993,239341,330948
1629709010186,86979,239393,330942
1629709010196,86995,239375,330945
1629709010206,87010,239404,330974
1629709010216,87047,239410,330993
1629709010226,87080,239432,330961
1629709010236,87086,239426,330985
1629709010246,87115,239446,330939
1629709010256,87127,239430,331025
1629709010266,87131,239454,331040
1629709010276,87179,239461,331073
1629709010286,87189,239469,331035
1629709010296,87193,239469,331071
1629709010306,87206,239438,331053
1629709010316,87227,239536,331078
1629709010326,87248,239556,331086
1629709010336,87276,239524,331108
1629709010346,87264,239566,331077
1629709010356,87269,239540,331121
1629709010366,87296,239572,331121
1629709010376,87346,239567,331109
1629709010386,87361,239603,331102
1629709010396,87379,239621,331133
1629709010406,87399,239633,331143
1629709010416,87422,239609,331159
1629709010426,87433,239657,331144
1629709010436,87455,239621,331151
1629709010446,87468,239635,331215
1629709010456,87483,239677,331213
1629709010466,87528,239682,331231
1629709010476,87527,239699,331210
1629709010486,87548,239748,331297
1629709010496,87596,239733,331294
1629709010506,87591,239747,331322
1629709010516,87629,239739,331313
1629709010526,87628,239792,331304
1629709010536,87648,239759,331356
1629709010546,87672,239785,331376
1629709010556,87727,239798,331363
1629709010566,87741,239817,331335
1629709010576,87790,239810,331363
1629709010586,87788,239839,331369
1629709010596,87777,239832,331379
1629709010606,87801,239811,331330
1629709010616,87819,239801,331307
1629709010626,87818,239825,331334
1629709010636,87807,239751,331345
1629709010646,87818,239750,331319
1629709010656,87812,239708,331296
1629709010666,87788,239719,331318
1629709010676,87782,239679,331332
1629709010686,87771,239681,331297
1629709010696,87772,239672,331259
1629709010706,87800,239687,331291
1629709010716,87779,239640,331279
1629709010726,87773,239609,331264
1629709010736,87776,239667,331265
1629709010746,87794,239642,331267
1629709010756,87776,239645,331305
1629709010766,87781,239650,331273
1629709010776,87787,239629,331271
1629709010786,87793,239668,331285
1629709010796,87821,239620,331290
1629709010806,87823,239643,331296
1629709010816,87835,239643,331303
1629709010826,87818,239646,331274
1629709010836,87824,239671,331330
1629709010846,87831,239668,331333
1629709010856,87836,239664,331303
1629709010866,87865,239671,331360
1629709010876,87884,239676,331316
1629709010886,87885,239670,331298
1629709010896,87879,239667,331340
1629709010906,87910,239659,331296
1629709010916,87911,239646,331327
1629709010926,87881,239666,331341
1629709010936,87917,239689,331325
1629709010946,87929,239665,331325
1629709010956,87930,239636,331328
1629709010966,87934,239677,331305
1629709010976,87935,239676,331338
1629709010986,87930,239712,331352
1629709010996,87932,239675,331336
1629709011006,87940,239695,331330
1629709011016,87945,239681,331352
1629709011026,87971,239680,331371
1629709011036,87968,239661,331363
1629709011046,87997,239716,331344
1629709011056,87993,239663,331330
1629709011066,88010,239695,331318
1629709011076,88000,239711,331304
1629709011086,88017,239693,331308
1629709011096,88026,239687,331331
1629709011106,88048,239668,331340
1629709011116,88076,239731,331327
1629709011126,88079,239680,331302
1629709011136,88100,239706,331318
1629709011146,88095,239708,331326
1629709011156,88095,239739,331339
1629709011166,88107,239740,331355
1629709011176,88126,239770,331389
1629709011186,88144,239759,331378
1629709011196,88170,239767,331380
1629709011206,88162,239785,331345
1629709011216,88190,239800,331356
1629709011226,88208,239768,331387
1629709011236,88210,239791,331359
1629709011246,88225,239793,331394
1629709011256,88210,239802,331374
1629709011266,88214,239803,331367
1629709011276,88238,239828,331356
1629709011286,88260,239818,331379
1629709011296,88283,239801,331372
1629709011306,88292,239821,331363
1629709011316,88290,239799,331377
1629709011326,88311,239849,331355
1629709011336,88316,239802,331366
1629709011346,88337,239875,331370
1629709011356,88370,239841,331380
1629709011366,88352,239863,331385
1629709011376,88392,239858,331388
1629709011386,88408,239888,331374
1629709011396,88423,239873,331427
1629709011406,88431,239896,331410
1629709011416,88438,239873,331424
1629709011426,88451,239905,331412
1629709011436,88473,239864,331404
1629709011446,88459,239878,331404
1629709011456,88500,239882,331379
1629709011466,88527,239888,331392
1629709011476,88513,239909,331409
1629709011486,88531,239908,331400
1629709011496,88552,239929,331421
1629709011506,88560,239895,331394
1629709011516,88581,239914,331406
1629709011526,88595,239838,331331
1629709011536,88581,239852,331353
1629709011546,88594,239828,331316
1629709011556,88575,239809,331305
1629709011566,88548,239783,331295
1629709011576,88537,239764,331281
1629709011586,88546,239736,331287
1629709011596,88493,239754,331298
1629709011606,88516,239702,331291
1629709011616,88518,239710,331230
1629709011626,88483,239714,331263
1629709011636,88486,239687,331261
1629709011646,88467,239691,331255
1629709011656,88453,239703,331222
1629709011666,88447,239691,331219
1629709011676,88445,239658,331203
1629709011686,88457,239667,331212
1629709011696,88461,239696,331265
1629709011706,88424,239690,331246
1629709011716,88441,239694,331270
1629709011726,88428,239685,331267
1629709011736,88420,239689,331280
1629709011746,88424,239672,331265
1629709011756,88432,239680,331290
1629709011766,88432,239683,331272
1629709011776,88420,239695,331327
1629709011786,88424,239704,331280
1629709011796,88393,239681,331323
1629709011806,88406,239696,331281
1629709011816,88411,239682,331314
1629709011826,88418,239712,331307
1629709011836,88417,239672,331279
1629709011846,88415,239663,331230
1629709011856,88395,239671,331218
1629709011866,88395,239690,331252
1629709011876,88400,239672,331249
1629709011886,88406,239688,331276
1629709011896,88403,239665,331251
1629709011906,88386,239687,331268
1629709011916,88403,239687,331271
1629709011926,88400,239681,331268
1629709011936,88403,239723,331281
1629709011946,88380,239694,331259
1629709011956,88381,239673,331246
1629709011966,88375,239718,331274
1629709011976,88373,239693,331285
1629709011986,88383,239680,331247
1629709011996,88390,239692,331226
1629709012006,88386,239668,331218
1629709012016,88402,239692,331251
1629709012026,88405,239700,331253
1629709012036,88395,239681,331233
1629709012046,88421,239706,331242
1629709012056,88405,239727,331247
1629709012066,88407,239707,331264
1629709012076,88435,239747,331273
1629709012086,88424,239704,331285
1629709012096,88435,239744,331270
1629709012106,88469,239705,331268
1629709012116,88456,239741,331284
1629709012126,88461,239744,331285
1629709012136,88470,239727,331278
1629709012146,88461,239736,331269
1629709012156,88486,239750,331245
1629709012166,88475,239751,331251
1629709012176,88485,239733,331222
1629709012186,88505,239770,331278
1629709012196,88510,239773,331271
1629709012206,88517,239768,331274
1629709012216,88516,239800,331261
1629709012226,88531,239794,331262
1629709012236,88548,239814,331273
1629709012246,88542,239778,331266
1629709012256,88561,239805,331292
1629709012266,88571,239811,331293
1629709012276,88562,239801,331316
1629709012286,88599,239821,331319
1629709012296,88605,239808,331317
1629709012306,88612,239853,331305
1629709012316,88616,239832,331348
1629709012326,88643,239856,331354
1629709012336,88644,239817,331341
1629709012346,88653,239833,331335
1629709012356,88671,239852,331349
1629709012366,88667,239846,331290
1629709012376,88698,239859,331305
1629709012386,88699,239884,331338
1629709012396,88726,239890,331365
1629709012406,88731,239880,331379
1629709012416,88752,239866,331342
1629709012426,88737,239862,331361
1629709012436,88734,239873,331325
1629709012446,88738,239816,331304
1629709012456,88723,239818,331294
1629709012466,88709,239817,331299
1629709012476,88715,239788,331292
1629709012486,88686,239773,331304
1629709012496,88681,239746,331295
1629709012506,88621,239730,331261
1629709012516,88626,239696,331247
1629709012526,88603,239721,331266
1629709012536,88567,239683,331221
1629709012546,88539,239677,331217
1629709012556,88546,239640,331218
1629709012566,88519,239676,331206
1629709012576,88512,239665,331195
1629709012586,88492,239656,331194
1629709012596,88482,239617,331218
1629709012606,88441,239651,331214
1629709012616,88428,239633,331236
1629709012626,88416,239619,331194
1629709012636,88416,239611,331220
1629709012646,88377,239622,331208
1629709012656,88375,239643,331265
1629709012666,88367,239601,331190
1629709012676,88351,239611,331222
1629709012686,88338,239611,331247
1629709012696,88306,239624,331187
1629709012706,88297,239581,331215
1629709012716,88307,239623,331204
1629709012726,88290,239620,331192
1629709012736,88265,239611,331169
1629709012746,88263,239598,331166
1629709012756,88230,239570,331111
1629709012766,88198,239583,331146
1629709012776,88202,239529,331152
1629709012786,88169,239558,331107
1629709012796,88155,239601,331139
1629709012806,88151,239581,331153
1629709012816,88165,239560,331138
1629709012826,88135,239570,331153
1629709012836,88136,239579,331152
1629709012846,88113,239583,331104
1629709012856,88093,239551,331173
1629709012866,88077,239605,331185
1629709012876,88094,239606,331149
1629709012886,88080,239597,331168
1629709012896,88067,239544,331116
1629709012906,88078,239587,331129
1629709012916,88067,239586,331106
1629709012926,88060,239597,331132
1629709012936,88026,239556,331135
1629709012946,88028,239583,331118
1629709012956,88014,239606,331094
1629709012966,88000,239599,331106
1629709012976,87996,239607,331112
1629709012986,88010,239617,331114
1629709012996,88012,239613,331148
1629709013006,87983,239601,331178
1629709013016,87989,239637,331119
1629709013026,87998,239622,331127
1629709013036,87998,239604,331142
1629709013046,88007,239627,331132
1629709013056,87997,239597,331118
1629709013066,87990,239630,331102
1629709013076,87969,239624,331096
1629709013086,87981,239612,331093
1629709013096,87969,239623,331124
1629709013106,87968,239603,331112
1629709013116,87966,239595,331141
1629709013126,87977,239647,331111
1629709013136,87983,239615,331106
1629709013146,87989,239643,331099
1629709013156,87989,239637,331090
1629709013166,87984,239667,331078
1629709013176,87988,239643,331090
1629709013186,87960,239657,331124
1629709013196,87980,239661,331103
1629709013206,87976,239626,331135
1629709013216,87982,239672,331132
1629709013226,87988,239671,331112
1629709013236,88015,239661,331132
1629709013246,88018,239687,331130
1629709013256,88020,239653,331135
1629709013266,88021,239690,331144
1629709013276,88015,239717,331130
1629709013286,88037,239717,331140
1629709013296,88049,239677,331166
1629709013306,88054,239717,331147
1629709013316,88065,239722,331153
1629709013326,88055,239752,331152
1629709013336,88080,239721,331117
1629709013346,88085,239728,331147
1629709013356,88102,239762,331116
1629709013366,88105,239749,331139
1629709013376,88109,239727,331150
1629709013386,88118,239717,331137
1629709013396,88094,239674,331135
1629709013406,88093,239667,331162
1629709013416,88067,239634,331111
1629709013426,88032,239631,331100
1629709013436,87999,239614,331152
1629709013446,87964,239580,331088
1629709013456,87946,239583,331132
1629709013466,87914,239588,331073
1629709013476,87887,239543,331103
1629709013486,87830,239578,331081
1629709013496,87824,239483,331035
1629709013506,87785,239536,331050
1629709013516,87744,239513,330981
1629709013526,87717,239526,330999
1629709013536,87704,239503,331039
1629709013546,87697,239499,331001
1629709013556,87663,239500,331011
1629709013566,87625,239475,331023
1629709013576,87606,239485,331042
1629709013586,87562,239483,331020
1629709013596,87536,239505,331072
1629709013606,87495,239501,331061
1629709013616,87500,239496,331051
1629709013626,87466,239487,331047
1629709013636,87448,239463,331046
1629709013646,87419,239459,331025
1629709013656,87399,239470,331038
1629709013666,87357,239481,331020
1629709013676,87329,239446,331008
1629709013686,87327,239420,331008
1629709013696,87301,239403,330992
1629709013706,87279,239444,330958
1629709013716,87251,239432,330961
1629709013726,87239,239455,330984
1629709013736,87214,239411,330974
1629709013746,87169,239430,330993
1629709013756,87148,239434,330969
1629709013766,87129,239446,330979
1629709013776,87105,239407,330979
1629709013786,87104,239436,330923
1629709013796,87063,239416,330998
1629709013806,87036,239413,330949
1629709013816,87018,239401,330961
1629709013826,87021,239418,330951
1629709013836,86996,239388,330958
1629709013846,86969,239424,330940
1629709013856,86976,239393,330966
1629709013866,86955,239399,330917
1629709013876,86938,239382,330935
1629709013886,86942,239407,330918
1629709013896,86915,239415,330930
1629709013906,86912,239411,330934
1629709013916,86877,239382,330895
1629709013926,86867,239407,330909
1629709013936,86862,239419,330918
1629709013946,86873,239417,330908
1629709013956,86859,239394,330901
1629709013966,86847,239390,330904
1629709013976,86847,239376,330914
1629709013986,86818,239416,330905
1629709013996,86812,239429,330899
1629709014006,86810,239445,330892
1629709014016,86824,239408,330891
1629709014026,86800,239461,330903
1629709014036,86810,239435,330884
1629709014046,86799,239437,330888
1629709014056,86810,239434,330895
1629709014066,86779,239415,330889
1629709014076,86807,239417,330869
1629709014086,86799,239433,330858
1629709014096,86786,239415,330867
1629709014106,86774,239443,330894
1629709014116,86785,239422,330892
1629709014126,86804,239489,330903
1629709014136,86800,239474,330928
1629709014146,86808,239460,330887
1629709014156,86785,239487,330907
1629709014166,86785,239451,330923
1629709014176,86785,239469,330924
1629709014186,86819,239466,330898
1629709014196,86822,239512,330902
1629709014206,86830,239485,330928
1629709014216,86828,239532,330920
1629709014226,86826,239509,330923
1629709014236,86828,239504,330960
1629709014246,86821,239545,330927
1629709014256,86832,239513,330959
1629709014266,86857,239528,330965
1629709014276,86846,239539,330922
1629709014286,86873,239544,330943
1629709014296,86862,239535,330923
1629709014306,86874,239541,330927
1629709014316,86882,239553,330872
1629709014326,86875,239551,330941
1629709014336,86887,239616,330971
1629709014346,86907,239555,330963
1629709014356,86900,239541,330933
1629709014366,86930,239529,330942
1629709014376,86923,239536,330874
1629709014386,86908,239503,330905
1629709014396,86884,239485,330939
1629709014406,86859,239469,330904
1629709014416,86811,239474,330880
1629709014426,86803,239432,330900
1629709014436,86781,239423,330883
1629709014446,86724,239434,330833
1629709014456,86711,239344,330863
1629709014466,86645,239354,330859
1629709014476,86615,239360,330812
1629709014486,86599,239340,330811
1629709014496,86555,239340,330820
1629709014506,86541,239329,330788
1629709014516,86510,239310,330812
1629709014526,86469,239287,330737
1629709014536,86431,239303,330797
1629709014546,86416,239315,330787
1629709014556,86357,239308,330795
1629709014566,86335,239253,330788
1629709014576,86304,239289,330813
1629709014586,86291,239284,330808
1629709014596,86263,239292,330794
1629709014606,86215,239307,330798
1629709014616,86217,239283,330820
1629709014626,86174,239280,330810
1629709014636,86153,239270,330795
1629709014646,86140,239271,330813
1629709014656,86094,239296,330758
1629709014666,86094,239296,330742
1629709014676,86050,239268,330765
1629709014686,86008,239271,330749
1629709014696,86000,239236,330745
1629709014706,85968,239247,330747
1629709014716,85957,239212,330731
1629709014726,85933,239193,330697
1629709014736,85907,239213,330781
1629709014746,85882,239224,330708
1629709014756,85855,239182,330699
1629709014766,85822,239220,330697
1629709014776,85812,239211,330646
1629709014786,85788,239201,330709
1629709014796,85772,239187,330707
1629709014806,85750,239204,330660
1629709014816,85732,239204,330657
1629709014826,85734,239162,330636
1629709014836,85712,239163,330673
1629709014846,85684,239196,330650
1629709014856,85678,239168,330648
1629709014866,85657,239187,330616
1629709014876,85651,239180,330626
1629709014886,85641,239161,330609
1629709014896,85631,239149,330637
1629709014906,85625,239165,330623
1629709014916,85621,239220,330650
1629709014926,85604,239189,330619
1629709014936,85587,239193,330650
1629709014946,85599,239179,330632
1629709014956,85595,239213,330639
1629709014966,85571,239211,330614
1629709014976,85563,239204,330651
1629709014986,85580,239218,330638
1629709014996,85587,239198,330658
1629709015006,85553,239202,330619
1629709015016,85573,239229,330635
1629709015026,85568,239228,330636
1629709015036,85552,239215,330637
1629709015046,85548,239242,330662
1629709015056,85552,239223,330640
1629709015066,85543,239206,330641
1629709015076,85558,239271,330652
1629709015086,85575,239243,330669
1629709015096,85558,239274,330685
1629709015106,85574,239290,330688
1629709015116,85571,239315,330722
1629709015126,85586,239309,330740
1629709015136,85580,239317,330712
1629709015146,85576,239324,330711
1629709015156,85579,239349,330737
1629709015166,85595,239328,330732
1629709015176,85596,239353,330765
1629709015186,85601,239347,330743
1629709015196,85583,239353,330732
1629709015206,85586,239360,330723
1629709015216,85600,239357,330735
1629709015226,85598,239376,330754
1629709015236,85617,239390,330750
1629709015246,85645,239380,330749
1629709015256,85662,239412,330749
1629709015266,85665,239410,330743
1629709015276,85680,239406,330763
1629709015286,85686,239405,330768
1629709015296,85678,239384,330786
1629709015306,85683,239399,330771
1629709015316,85710,239416,330749
1629709015326,85738,239402,330721
1629709015336,85731,239425,330712
1629709015346,85745,239398,330705
1629709015356,85749,239415,330628
1629709015366,85757,239415,330682
1629709015376,85766,239377,330602
1629709015386,85774,239377,330591
1629709015396,85769,239315,330565
1629709015406,85762,239274,330549
1629709015416,85754,239248,330540
1629709015426,85722,239253,330515
1629709015436,85693,239242,330566
1629709015446,85666,239195,330558
1629709015456,85640,239230,330595
1629709015466,85615,239193,330590
1629709015476,85570,239211,330573
1629709015486,85538,239214,330583
1629709015496,85502,239201,330556
1629709015506,85494,239177,330543
1629709015516,85445,239183,330535
1629709015526,85408,239127,330529
1629709015536,85358,239133,330508
1629709015546,85335,239107,330506
1629709015556,85329,239132,330468
1629709015566,85282,239110,330489
1629709015576,85273,239110,330487
1629709015586,85242,239104,330456
1629709015596,85200,239073,330446
1629709015606,85171,239075,330442
1629709015616,85147,239074,330420
1629709015626,85133,239048,330412
1629709015636,85120,239021,330432
1629709015646,85069,239045,330400
1629709015656,85061,239000,330369
1629709015666,85044,238996,330333
1629709015676,85007,239018,330337
1629709015686,84996,238977,330273
1629709015696,84978,238991,330297
1629709015706,84948,238959,330244
1629709015716,84928,238960,330267
1629709015726,84928,238948,330237
1629709015736,84910,238945,330250
1629709015746,84891,238931,330243
1629709015756,84870,238969,330252
1629709015766,84857,238942,330253
1629709015776,84838,238916,330226
1629709015786,84826,238913,330254
1629709015796,84817,238912,330244
1629709015806,84800,238899,330231
1629709015816,84769,238916,330233
1629709015826,84745,238922,330224
1629709015836,84757,238907,330236
1629709015846,84726,238927,330207
1629709015856,84710,238906,330216
1629709015866,84743,238922,330213
1629709015876,84739,238916,330210
1629709015886,84732,238915,330207
1629709015896,84723,238938,330199
1629709015906,84732,238926,330212
1629709015916,84716,238903,330252
1629709015926,84720,238892,330232
1629709015936,84700,238938,330229
1629709015946,84717,238972,330236
1629709015956,84709,238925,330210
1629709015966,84723,238951,330222
1629709015976,84717,238967,330228
1629709015986,84732,238942,330249
1629709015996,84724,238955,330254
1629709016006,84712,238969,330252
1629709016016,84717,238986,330223
1629709016026,84728,238958,330258
1629709016036,84718,239032,330290
1629709016046,84758,238984,330296
1629709016056,84769,238964,330293
1629709016066,84759,239016,330298
1629709016076,84785,239006,330320
1629709016086,84781,239043,330312
1629709016096,84787,239035,330341
1629709016106,84793,239038,330352
1629709016116,84806,239051,330334
1629709016126,84804,239029,330350
1629709016136,84816,239055,330367
1629709016146,84847,239073,330376
1629709016156,84845,239095,330394
1629709016166,84827,239078,330416
1629709016176,84844,239067,330392
1629709016186,84858,239119,330407
1629709016196,84882,239135,330453
1629709016206,84923,239101,330409
1629709016216,84925,239134,330448
1629709016226,84941,239139,330485
1629709016236,84943,239193,330473
1629709016246,84960,239178,330519
1629709016256,84975,239190,330515
1629709016266,84998,239201,330501
1629709016276,84999,239192,330476
1629709016286,85001,239211,330520
1629709016296,85033,239208,330532
1629709016306,85055,239188,330539
1629709016316,85087,239192,330493
1629709016326,85074,239196,330487
1629709016336,85084,239216,330478
1629709016346,85103,239208,330451
1629709016356,85124,239176,330422
1629709016366,85140,239160,330433
1629709016376,85150,239138,330415
1629709016386,85139,239135,330446
1629709016396,85129,239112,330444
1629709016406,85115,239103,330448
1629709016416,85087,239071,330420
1629709016426,85053,239059,330435
1629709016436,85029,239026,330394
1629709016446,85029,239021,330394
1629709016456,84987,238955,330368
1629709016466,84936,238977,330348
1629709016476,84918,238945,330306
1629709016486,84902,238934,330280
1629709016496,84862,238914,330266
1629709016506,84847,238861,330218
1629709016516,84812,238842,330203
1629709016526,84786,238837,330188
1629709016536,84778,238884,330218
1629709016546,84767,238848,330232
1629709016556,84757,238855,330294
1629709016566,84742,238826,330287
1629709016576,84718,238843,330321
1629709016586,84690,238859,330267
1629709016596,84698,238829,330305
1629709016606,84688,238843,330280
1629709016616,84661,238816,330289
1629709016626,84652,238809,330277
1629709016636,84639,238825,330233
1629709016646,84605,238832,330234
1629709016656,84602,238814,330234
1629709016666,84593,238793,330220
1629709016676,84574,238793,330240
1629709016686,84559,238803,330165
1629709016696,84543,238791,330176
1629709016706,84564,238773,330171
1629709016716,84519,238774,330199
1629709016726,84532,238800,330221
1629709016736,84525,238769,330202
1629709016746,84501,238788,330235
1629709016756,84492,238775,330237
1629709016766,84491,238806,330250
1629709016776,84508,238792,330229
1629709016786,84497,238776,330228
1629709016796,84504,238778,330239
1629709016806,84482,238796,330284
1629709016816,84468,238785,330245
1629709016826,84465,238803,330254
1629709016836,84460,238794,330306
1629709016846,84470,238811,330287
1629709016856,84470,238798,330317
1629709016866,84491,238822,330285
1629709016876,84484,238837,330314
1629709016886,84487,238831,330320
1629709016896,84485,238840,330336
1629709016906,84499,238843,330337
1629709016916,84491,238853,330316
1629709016926,84498,238878,330320
1629709016936,84522,238874,330332
1629709016946,84519,238871,330376
1629709016956,84516,238864,330350
1629709016966,84529,238910,330360
1629709016976,84541,238868,330373
1629709016986,84533,238899,330344
1629709016996,84540,238903,330397
1629709017006,84551,238887,330389
1629709017016,84574,238878,330396
1629709017026,84564,238880,330395
1629709017036,84591,238904,330404
1629709017046,84601,238911,330424
1629709017056,84612,238910,330379
1629709017066,84624,238890,330418
1629709017076,84625,238903,330404
1629709017086,84620,238907,330386
1629709017096,84636,238951,330376
1629709017106,84663,238923,330388
1629709017116,84672,238894,330416
1629709017126,84685,238913,330390
1629709017136,84698,238941,330426
1629709017146,84704,238936,330442
1629709017156,84721,238918,330444
1629709017166,84740,238948,330462
1629709017176,84761,238976,330473
1629709017186,84787,238981,330490
1629709017196,84795,238990,330477
1629709017206,84827,239000,330492
1629709017216,84831,239007,330522
1629709017226,84854,238994,330509
1629709017236,84864,239035,330530
1629709017246,84884,239052,330517
1629709017256,84913,239017,330518
1629709017266,84945,239029,330534
1629709017276,84941,239020,330550
1629709017286,84954,239023,330537
1629709017296,84963,238988,330533
1629709017306,84953,238974,330505
1629709017316,84902,238935,330555
1629709017326,84908,238945,330533
1629709017336,84884,238931,330563
1629709017346,84879,238889,330547
1629709017356,84823,238889,330527
1629709017366,84821,238878,330564
1629709017376,84791,238882,330634
1629709017386,84769,238922,330612
1629709017396,84744,238924,330659
1629709017406,84715,238919,330720
1629709017416,84714,238964,330774
1629709017426,84696,239025,330891
1629709017436,84681,239120,331056
1629709017446,84685,239209,331223
1629709017456,84653,239328,331424
1629709017466,84644,239408,331582
1629709017476,84644,239509,331748
1629709017486,84638,239547,331849
1629709017496,84625,239553,331937
1629709017506,84626,239626,332009
1629709017516,84618,239662,332092
1629709017526,84598,239692,332144
1629709017536,84596,239700,332236
1629709017546,84576,239738,332258
1629709017556,84539,239759,332283
1629709017566,84530,239789,332343
1629709017576,84511,239775,332358
1629709017586,84517,239791,332347
1629709017596,84497,239791,332398
1629709017606,84455,239855,332402
1629709017616,84466,239818,332419
1629709017626,84447,239851,332454
1629709017636,84419,239855,332479
1629709017646,84391,239840,332485
1629709017656,84394,239885,332588
1629709017666,84382,239899,332615
1629709017676,84388,239935,332668
1629709017686,84388,239981,332761
1629709017696,84377,239990,332852
1629709017706,84385,240036,332862
1629709017716,84397,240012,332874
1629709017726,84374,240032,332873
1629709017736,84382,240011,332908
1629709017746,84366,240038,332880
1629709017756,84352,240052,332884
1629709017766,84344,240047,332794
1629709017776,84341,240027,332773
1629709017786,84320,239976,332701
1629709017796,84309,239937,332614
1629709017806,84300,239934,332687
1629709017816,84309,239930,332606
1629709017826,84308,239921,332586
1629709017836,84321,239944,332641
1629709017846,84347,239982,332687
1629709017856,84349,239991,332698
1629709017866,84354,240024,332787
1629709017876,84370,240042,332837
1629709017886,84391,240057,332855
1629709017896,84382,240092,332929
1629709017906,84400,240126,332933
1629709017916,84383,240155,332919
1629709017926,84413,240128,332955
1629709017936,84427,240123,332949
1629709017946,84431,240158,332936
1629709017956,84437,240127,332935
1629709017966,84441,240150,332914
1629709017976,84449,240100,332864
1629709017986,84449,240102,332811
1629709017996,84453,240112,332842
1629709018006,84455,240130,332781
1629709018016,84462,240133,332867
1629709018026,84486,240142,332856
1629709018036,84508,240126,332850
1629709018046,84526,240151,332908
1629709018056,84536,240182,332936
1629709018066,84561,240208,332968
1629709018076,84564,240197,332959
1629709018086,84587,240238,332998
1629709018096,84604,240202,333035
1629709018106,84624,240276,333058
1629709018116,84640,240261,332996
1629709018126,84667,240245,333033
1629709018136,84669,240243,332971
1629709018146,84677,240240,332984
1629709018156,84692,240257,332966
1629709018166,84700,240223,332913
1629709018176,84736,240204,332867
1629709018186,84742,240240,332855
1629709018196,84752,240188,332839
1629709018206,84761,240162,332830
1629709018216,84774,240208,332838
1629709018226,84765,240148,332851
1629709018236,84756,240133,332844
1629709018246,84751,240157,332881
1629709018256,84723,240140,332872
1629709018266,84675,240085,332838
1629709018276,84633,240091,332842
1629709018286,84614,240054,332869
1629709018296,84572,240061,332846
1629709018306,84546,240024,332832
1629709018316,84522,239972,332787
1629709018326,84499,239981,332722
1629709018336,84446,239925,332699
1629709018346,84421,239935,332693
1629709018356,84358,239888,332636
1629709018366,84345,239855,332647
1629709018376,84324,239878,332588
1629709018386,84299,239850,332609
1629709018396,84254,239866,332593
1629709018406,84228,239831,332626
1629709018416,84226,239821,332628
1629709018426,84193,239839,332622
1629709018436,84156,239840,332653
1629709018446,84134,239841,332667
1629709018456,84116,239869,332687
1629709018466,84098,239823,332668
1629709018476,84089,239888,332680
1629709018486,84082,239877,332673
1629709018496,84064,239845,332686
1629709018506,84057,239810,332648
1629709018516,84011,239841,332634
1629709018526,84006,239816,332609
1629709018536,83980,239823,332581
1629709018546,83982,239810,332593
1629709018556,83962,239768,332591
1629709018566,83935,239778,332524
1629709018576,83938,239772,332554
1629709018586,83917,239794,332558
1629709018596,83903,239816,332564
1629709018606,83888,239784,332583
1629709018616,83891,239781,332573
1629709018626,83893,239794,332623
1629709018636,83882,239794,332611
1629709018646,83874,239823,332632
1629709018656,83867,239811,332631
1629709018666,83866,239820,332653
1629709018676,83874,239823,332665
1629709018686,83849,239844,332635
1629709018696,83846,239845,332608
1629709018706,83865,239825,332605
1629709018716,83841,239837,332629
1629709018726,83852,239830,332614
1629709018736,83845,239839,332573
1629709018746,83855,239830,332589
1629709018756,83849,239831,332573
1629709018766,83859,239826,332551
1629709018776,83866,239855,332584
1629709018786,83872,239857,332619
1629709018796,83880,239876,332620
1629709018806,83906,239877,332621
1629709018816,83917,239911,332647
1629709018826,83922,239919,332671
1629709018836,83941,239907,332670
1629709018846,83960,239910,332689
1629709018856,83941,239937,332717
1629709018866,83969,239945,332729
1629709018876,83992,239943,332733
1629709018886,84002,239942,332722
1629709018896,83989,239984,332683
1629709018906,84008,239966,332719
1629709018916,84017,239972,332714
1629709018926,84055,239960,332717
1629709018936,84030,239971,332669
1629709018946,84052,239982,332711
1629709018956,84065,239982,332675
1629709018966,84084,239989,332706
1629709018976,84117,240022,332748
1629709018986,84128,240032,332709
1629709018996,84130,240030,332746
1629709019006,84169,240003,332781
1629709019016,84194,240054,332776
1629709019026,84192,240066,332799
1629709019036,84241,240059,332761
1629709019046,84265,240071,332804
1629709019056,84271,240087,332819
1629709019066,84296,240117,332812
1629709019076,84310,240096,332799
1629709019086,84316,240123,332774
1629709019096,84341,240112,332754
1629709019106,84365,240095,332777
1629709019116,84397,240124,332772
1629709019126,84417,240122,332768
1629709019136,84443,240117,332785
1629709019146,84469,240126,332791
1629709019156,84494,240131,332808
1629709019166,84514,240088,332833
1629709019176,84491,240132,332791
1629709019186,84495,240112,332829
1629709019196,84508,240058,332826
1629709019206,84507,240058,332808
1629709019216,84460,240026,332799
1629709019226,84420,239994,332817
1629709019236,84420,239987,332810
1629709019246,84390,239966,332793
1629709019256,84359,239933,332795
1629709019266,84332,239935,332797
1629709019276,84313,239919,332773
1629709019286,84293,239904,332757
1629709019296,84261,239897,332736
1629709019306,84244,239914,332722
1629709019316,84228,239886,332740
1629709019326,84200,239920,332702
1629709019336,84171,239863,332711
1629709019346,84153,239864,332739
1629709019356,84163,239884,332792
1629709019366,84142,239875,332756
1629709019376,84122,239859,332753
1629709019386,84101,239877,332805
1629709019396,84090,239881,332805
1629709019406,84054,239912,332791
1629709019416,84058,239877,332762
1629709019426,84030,239880,332843
1629709019436,84012,239881,332805
1629709019446,84039,239910,332821
1629709019456,84017,239891,332774
1629709019466,84020,239911,332787
1629709019476,84001,239868,332755
1629709019486,83964,239838,332746
1629709019496,83967,239824,332717
1629709019506,83948,239835,332743
1629709019516,83962,239865,332724
1629709019526,83953,239877,332749
1629709019536,83910,239849,332747
1629709019546,83932,239835,332786
1629709019556,83934,239867,332786
1629709019566,83909,239845,332801
1629709019576,83906,239887,332782
1629709019586,83906,239887,332833
1629709019596,83908,239897,332812
1629709019606,83901,239857,332810
1629709019616,83930,239886,332804
1629709019626,83927,239890,332789
1629709019636,83933,239910,332793
1629709019646,83907,239896,332810
1629709019656,83947,239896,332782
1629709019666,83923,239927,332802
1629709019676,83970,239913,332776
1629709019686,83941,239914,332809
1629709019696,83968,239929,332822
1629709019706,83971,239909,332779
1629709019716,83983,239965,332778
1629709019726,84012,239939,332838
1629709019736,83996,239933,332812
1629709019746,84002,239986,332847
1629709019756,84019,239975,332858
1629709019766,84029,239968,332862
1629709019776,84059,240017,332884
1629709019786,84075,240003,332859
1629709019796,84077,240019,332873
1629709019806,84077,240052,332961
1629709019816,84121,240030,332884
1629709019826,84133,240013,332895
1629709019836,84117,240042,332925
1629709019846,84164,240037,332905
1629709019856,84159,240058,332889
1629709019866,84192,240056,332904
1629709019876,84203,240092,332917
1629709019886,84219,240076,332921
1629709019896,84232,240087,332945
1629709019906,84239,240118,332937
1629709019916,84249,240084,332932
1629709019926,84275,240109,332944
1629709019936,84317,240128,332950
1629709019946,84334,240100,332988
1629709019956,84355,240101,332945
1629709019966,84386,240129,332957
1629709019976,84385,240123,333004
1629709019986,84405,240169,332968
1629709019996,84423,240182,332984
1629709020006,84474,240152,333015
1629709020016,84494,240195,333032
1629709020026,84534,240212,333019
1629709020036,84528,240178,333009
1629709020046,84553,240210,333028
1629709020056,84555,240220,333016
1629709020066,84581,240219,333045
1629709020076,84644,240213,333034
1629709020086,84653,240246,333021
1629709020096,84677,240256,333045
1629709020106,84689,240237,333024
1629709020116,84716,240297,333062
1629709020126,84742,240252,333065
1629709020136,84770,240275,333067
1629709020146,84786,240242,333087
1629709020156,84786,240266,333055
1629709020166,84794,240252,333065
1629709020176,84797,240222,333058
1629709020186,84808,240207,333066
1629709020196,84795,240216,333045
1629709020206,84785,240150,333036
1629709020216,84751,240135,333090
1629709020226,84718,240106,333043
1629709020236,84693,240101,333031
1629709020246,84661,240097,333021
1629709020256,84664,240065,332959
1629709020266,84644,240043,332952
1629709020276,84630,240030,332964
1629709020286,84617,240046,332934
1629709020296,84608,240001,332940
1629709020306,84574,240049,332958
1629709020316,84566,240033,332963
1629709020326,84548,240012,332980
1629709020336,84543,240028,332998
1629709020346,84555,240052,332983
1629709020356,84554,240038,333044
1629709020366,84530,240025,333056
1629709020376,84507,240025,333044
1629709020386,84514,240022,332995
1629709020396,84500,240056,333027
1629709020406,84478,240053,333014
1629709020416,84481,240041,333027
1629709020426,84464,240052,332997
1629709020436,84478,240017,332967
1629709020446,84489,240007,332982
1629709020456,84463,239999,332986
1629709020466,84455,240029,332990
1629709020476,84462,240004,332966
1629709020486,84459,239995,332984
1629709020496,84444,240017,333018
1629709020506,84446,240001,332984
1629709020516,84446,240011,332990
1629709020526,84448,240074,333020
1629709020536,84457,240063,333010
1629709020546,84447,240016,333060
1629709020556,84444,240052,333055
1629709020566,84452,240053,333088
1629709020576,84457,240062,333025
1629709020586,84459,240049,333042
1629709020596,84462,240047,333015
1629709020606,84455,240071,332972
1629709020616,84456,240045,332979
1629709020626,84473,240036,332945
1629709020636,84472,240027,332941
1629709020646,84485,240038,332980
1629709020656,84480,240044,332974
1629709020666,84512,240061,332960
1629709020676,84503,240087,332966
1629709020686,84518,240113,333030
1629709020696,84534,240087,333034
1629709020706,84530,240107,333017
1629709020716,84544,240107,333049
1629709020726,84557,240119,333031
1629709020736,84573,240151,333093
1629709020746,84601,240151,333109
1629709020756,84621,240169,333121
1629709020766,84628,240150,333089
1629709020776,84637,240184,333072
1629709020786,84662,240176,333086
1629709020796,84644,240179,333080
1629709020806,84667,240209,333054
1629709020816,84692,240177,333055
1629709020826,84731,240191,333077
1629709020836,84725,240162,333037
1629709020846,84728,240220,333031
1629709020856,84750,240218,333036
1629709020866,84783,240219,333015
1629709020876,84793,240214,333057
1629709020886,84814,240220,333026
1629709020896,84832,240192,333049
1629709020906,84845,240255,333078
1629709020916,84857,240253,333028
1629709020926,84889,240253,333040
1629709020936,84903,240250,333086
1629709020946,84937,240281,333098
1629709020956,84934,240267,333077
1629709020966,84956,240277,333066
1629709020976,85000,240303,333103
1629709020986,85007,240277,333087
1629709020996,85016,240290,333100
1629709021006,85057,240294,333065
1629709021016,85060,240282,333045
1629709021026,85063,240281,333057
1629709021036,85095,240307,333035
1629709021046,85104,240309,333030
1629709021056,85135,240322,333011
1629709021066,85161,240334,333056
1629709021076,85199,240320,333047
1629709021086,85218,240358,333046
1629709021096,85261,240338,333045
1629709021106,85270,240345,333054
1629709021116,85284,240346,333087
1629709021126,85313,240382,333038
1629709021136,85308,240352,333060
1629709021146,85327,240367,333033
1629709021156,85361,240321,333033
1629709021166,85364,240326,333017
1629709021176,85340,240271,332973
1629709021186,85354,240226,332930
1629709021196,85346,240249,332965
1629709021206,85321,240163,332921
1629709021216,85297,240162,332900
1629709021226,85275,240130,332848
1629709021236,85242,240110,332830
1629709021246,85221,240100,332812
1629709021256,85213,240092,332829
1629709021266,85204,240052,332817
1629709021276,85159,240078,332828
1629709021286,85170,240047,332854
1629709021296,85160,240047,332796
1629709021306,85167,240065,332807
1629709021316,85149,240072,332836
1629709021326,85126,240051,332873
1629709021336,85137,240073,332863
1629709021346,85142,240068,332882
1629709021356,85116,240104,332874
1629709021366,85114,240078,332843
1629709021376,85113,240107,332879
1629709021386,85110,240070,332890
1629709021396,85102,240080,332888
1629709021406,85086,240089,332871
1629709021416,85097,240077,332834
1629709021426,85104,240060,332840
1629709021436,85093,240097,332818
1629709021446,85105,240062,332802
1629709021456,85069,240086,332817
1629709021466,85091,240045,332830
1629709021476,85078,240042,332809
1629709021486,85097,240077,332789
1629709021496,85084,240050,332782
1629709021506,85105,240067,332822
1629709021516,85093,240053,332841
1629709021526,85087,240089,332856
1629709021536,85090,240093,332841
1629709021546,85090,240088,332855
1629709021556,85085,240115,332887
1629709021566,85083,240082,332892
1629709021576,85101,240111,332817
1629709021586,85097,240085,332861
1629709021596,85106,240091,332834
1629709021606,85107,240130,332792
1629709021616,85106,240111,332813
1629709021626,85117,240135,332808
1629709021636,85118,240147,332808
1629709021646,85143,240118,332789
1629709021656,85145,240084,332848
1629709021666,85159,240151,332856
1629709021676,85153,240140,332824
1629709021686,85162,240167,332803
1629709021696,85183,240158,332822
1629709021706,85183,240182,332822
1629709021716,85206,240157,332833
1629709021726,85221,240190,332837
1629709021736,85235,240210,332846
1629709021746,85238,240197,332828
1629709021756,85260,240205,332876
1629709021766,85243,240191,332832
1629709021776,85256,240193,332819
1629709021786,85297,240203,332787
1629709021796,85306,240205,332844
1629709021806,85311,240215,332774
1629709021816,85326,240201,332765
1629709021826,85339,240209,332778
1629709021836,85354,240219,332787
1629709021846,85361,240215,332730
1629709021856,85375,240186,332730
1629709021866,85388,240193,332741
1629709021876,85406,240203,332711
1629709021886,85431,240212,332741
1629709021896,85439,240165,332682
1629709021906,85454,240218,332711
1629709021916,85464,240173,332674
1629709021926,85487,240192,332691
1629709021936,85509,240175,332644
1629709021946,85508,240204,332656
1629709021956,85524,240159,332635
1629709021966,85554,240200,332623
1629709021976,85576,240225,332625
1629709021986,85587,240207,332639
1629709021996,85598,240215,332636
1629709022006,85622,240243,332643
1629709022016,85629,240251,332657
1629709022026,85651,240223,332660
1629709022036,85695,240262,332633
1629709022046,85701,240252,332671
1629709022056,85725,240242,332654
1629709022066,85747,240270,332665
1629709022076,85768,240275,332667
1629709022086,85790,240283,332662
1629709022096,85804,240247,332642
1629709022106,85834,240265,332619
1629709022116,85839,240233,332592
1629709022126,85848,240240,332584
1629709022136,85836,240207,332561
1629709022146,85829,240155,332552
1629709022156,85838,240179,332542
1629709022166,85797,240137,332536
1629709022176,85772,240086,332542
1629709022186,85766,240081,332474
1629709022196,85750,240054,332510
1629709022206,85730,240052,332447
1629709022216,85728,240014,332423
1629709022226,85706,239979,332407
1629709022236,85687,240011,332389
1629709022246,85684,239954,332379
1629709022256,85679,239980,332388
1629709022266,85680,239967,332336
1629709022276,85654,239967,332338
1629709022286,85659,239919,332308
1629709022296,85653,239921,332354
1629709022306,85648,239886,332294
1629709022316,85635,239896,332289
1629709022326,85637,239883,332280
1629709022336,85629,239886,332239
1629709022346,85624,239838,332240
1629709022356,85618,239869,332251
1629709022366,85633,239872,332221
1629709022376,85617,239863,332190
1629709022386,85614,239876,332189
1629709022396,85625,239840,332191
1629709022406,85615,239835,332157
1629709022416,85622,239853,332145
1629709022426,85610,239812,332135
1629709022436,85619,239831,332145
1629709022446,85618,239818,332165
1629709022456,85622,239805,332190
1629709022466,85615,239805,332137
1629709022476,85615,239828,332136
1629709022486,85618,239826,332149
1629709022496,85615,239822,332129
1629709022506,85623,239773,332138
1629709022516,85623,239784,332103
1629709022526,85623,239840,332072
1629709022536,85631,239812,332110
1629709022546,85645,239822,332106
1629709022556,85647,239811,332067
1629709022566,85656,239817,332115
1629709022576,85665,239833,332099
1629709022586,85668,239824,332149
1629709022596,85685,239811,332094
1629709022606,85698,239827,332128
1629709022616,85674,239814,332130
1629709022626,85687,239842,332140
1629709022636,85727,239863,332108
1629709022646,85712,239827,332121
1629709022656,85726,239850,332154
1629709022666,85749,239890,332131
1629709022676,85759,239857,332119
1629709022686,85760,239830,332101
1629709022696,85781,239865,332133
1629709022706,85802,239828,332109
1629709022716,85812,239870,332095
1629709022726,85821,239832,332087
1629709022736,85844,239889,332082
1629709022746,85831,239861,332046
1629709022756,85859,239870,332054
1629709022766,85882,239855,332074
1629709022776,85885,239881,332082
1629709022786,85897,239883,332052
1629709022796,85949,239846,332063
1629709022806,85931,239864,332070
1629709022816,85938,239870,332045
1629709022826,85954,239884,332079
1629709022836,85969,239920,332076
1629709022846,85999,239917,332064
1629709022856,86019,239912,332051
1629709022866,86035,239925,332086
1629709022876,86060,239926,332090
1629709022886,86069,239935,332109
1629709022896,86087,239928,332076
1629709022906,86091,239950,332071
1629709022916,86137,239943,332138
1629709022926,86152,239981,332117
1629709022936,86159,239983,332143
1629709022946,86186,239971,332142
1629709022956,86193,239967,332105
1629709022966,86208,239990,332121
1629709022976,86221,239980,332159
1629709022986,86232,240009,332150
1629709022996,86255,239997,332154
1629709023006,86298,240013,332154
1629709023016,86328,240024,332125
1629709023026,86331,239975,332140
1629709023036,86349,240015,332109
1629709023046,86354,239960,332085
1629709023056,86362,239947,332084
1629709023066,86331,239941,332037
1629709023076,86291,239898,332022
1629709023086,86331,239878,332033
1629709023096,86286,239831,332036
1629709023106,86266,239787,332018
1629709023116,86249,239781,332022
1629709023126,86231,239761,331944
1629709023136,86171,239806,331964
1629709023146,86163,239731,331923
1629709023156,86148,239724,331913
1629709023166,86124,239687,331909
1629709023176,86125,239677,331880
1629709023186,86095,239672,331885
1629709023196,86082,239675,331870
1629709023206,86058,239653,331847
1629709023216,86070,239691,331856
1629709023226,86032,239630,331868
1629709023236,86022,239647,331835
1629709023246,86040,239670,331848
1629709023256,86008,239670,331871
1629709023266,85991,239676,331889
1629709023276,85987,239676,331864
1629709023286,85975,239637,331875
1629709023296,85981,239637,331854
1629709023306,85953,239630,331859
1629709023316,85950,239647,331859
1629709023326,85951,239622,331858
1629709023336,85948,239611,331834
1629709023346,85941,239627,331859
1629709023356,85935,239621,331812
1629709023366,85925,239613,331874
1629709023376,85915,239617,331826
1629709023386,85900,239608,331859
1629709023396,85878,239586,331825
1629709023406,85888,239601,331856
1629709023416,85882,239614,331848
1629709023426,85847,239606,331821
1629709023436,85861,239627,331823
1629709023446,85851,239642,331851
1629709023456,85852,239600,331865
1629709023466,85843,239594,331820
1629709023476,85825,239623,331816
1629709023486,85836,239592,331837
1629709023496,85829,239598,331785
1629709023506,85839,239608,331810
1629709023516,85836,239634,331802
1629709023526,85853,239648,331793
1629709023536,85824,239633,331798
1629709023546,85835,239634,331810
1629709023556,85844,239657,331793
1629709023566,85853,239627,331810
1629709023576,85853,239594,331794
1629709023586,85870,239679,331847
1629709023596,85857,239638,331819
1629709023606,85886,239643,331847
1629709023616,85894,239671,331835
1629709023626,85880,239689,331820
1629709023636,85896,239684,331863
1629709023646,85893,239679,331860
1629709023656,85902,239690,331839
1629709023666,85924,239688,331817
1629709023676,85926,239698,331843
1629709023686,85936,239674,331883
1629709023696,85961,239709,331842
1629709023706,85960,239677,331851
1629709023716,85952,239708,331862
1629709023726,85982,239722,331857
1629709023736,85964,239736,331861
1629709023746,85984,239726,331888
1629709023756,86006,239716,331873
1629709023766,86020,239758,331910
1629709023776,86018,239715,331878
1629709023786,86023,239749,331898
1629709023796,86033,239753,331890
1629709023806,86058,239759,331906
1629709023816,86052,239785,331912
1629709023826,86092,239767,331903
1629709023836,86103,239787,331913
1629709023846,86111,239807,331922
1629709023856,86129,239841,331927
1629709023866,86139,239798,331873
1629709023876,86152,239815,331884
1629709023886,86169,239824,331902
1629709023896,86184,239830,331918
1629709023906,86197,239810,331886
1629709023916,86192,239815,331937
1629709023926,86232,239840,331909
1629709023936,86230,239856,331916
1629709023946,86241,239853,331930
1629709023956,86260,239854,331904
1629709023966,86263,239855,331935
1629709023976,86272,239804,331903
1629709023986,86315,239783,331923
1629709023996,86272,239777,331882
1629709024006,86250,239731,331896
1629709024016,86235,239727,331876
1629709024026,86217,239712,331841
1629709024036,86173,239662,331832
1629709024046,86164,239686,331821
1629709024056,86138,239672,331825
1629709024066,86097,239632,331814
1629709024076,86061,239619,331768
1629709024086,86048,239575,331728
1629709024096,86022,239584,331741
1629709024106,85993,239569,331722
1629709024116,85977,239539,331668
1629709024126,85942,239549,331701
1629709024136,85913,239530,331687
1629709024146,85907,239519,331687
1629709024156,85901,239549,331709
1629709024166,85881,239549,331692
1629709024176,85852,239543,331705
1629709024186,85825,239543,331754
1629709024196,85806,239529,331735
1629709024206,85809,239546,331743
1629709024216,85784,239542,331778
1629709024226,85777,239519,331795
1629709024236,85769,239541,331750
1629709024246,85740,239529,331759
1629709024256,85723,239582,331775
1629709024266,85697,239524,331713
1629709024276,85682,239519,331730
1629709024286,85672,239509,331746
1629709024296,85661,239516,331727
1629709024306,85652,239472,331701
1629709024316,85634,239512,331724
1629709024326,85636,239507,331713
1629709024336,85617,239545,331718
1629709024346,85607,239529,331718
1629709024356,85587,239515,331726
1629709024366,85579,239485,331750
1629709024376,85577,239525,331750
1629709024386,85551,239504,331719
1629709024396,85553,239505,331686
1629709024406,85548,239511,331683
1629709024416,85514,239506,331712
1629709024426,85517,239502,331688
1629709024436,85505,239521,331704
1629709024446,85508,239501,331704
1629709024456,85507,239534,331694
1629709024466,85502,239547,331717
1629709024476,85528,239504,331685
1629709024486,85519,239510,331724
1629709024496,85522,239543,331711
1629709024506,85512,239550,331716
1629709024516,85493,239528,331729
1629709024526,85501,239577,331729
1629709024536,85514,239541,331743
1629709024546,85531,239555,331741
1629709024556,85524,239594,331733
1629709024566,85541,239543,331740
1629709024576,85533,239630,331722
1629709024586,85526,239579,331736
1629709024596,85522,239593,331763
1629709024606,85551,239580,331806
1629709024616,85551,239595,331764
1629709024626,85539,239605,331742
1629709024636,85564,239601,331761
1629709024646,85563,239629,331761
1629709024656,85574,239619,331780
1629709024666,85575,239607,331794
1629709024676,85588,239617,331773
1629709024686,85593,239600,331787
1629709024696,85590,239640,331784
1629709024706,85606,239644,331791
1629709024716,85614,239632,331797
1629709024726,85626,239628,331790
1629709024736,85637,239646,331780
1629709024746,85630,239653,331796
1629709024756,85644,239652,331802
1629709024766,85647,239665,331824
1629709024776,85667,239657,331806
1629709024786,85673,239687,331810
1629709024796,85699,239721,331827
1629709024806,85717,239686,331782
1629709024816,85724,239680,331785
1629709024826,85739,239690,331770
1629709024836,85742,239687,331795
1629709024846,85750,239693,331788
1629709024856,85777,239698,331758
1629709024866,85795,239720,331770
1629709024876,85825,239756,331784
1629709024886,85830,239755,331821
1629709024896,85824,239755,331829
1629709024906,85847,239733,331771
1629709024916,85889,239770,331816
1629709024926,85858,239721,331860
1629709024936,85863,239698,331828
1629709024946,85846,239689,331773
1629709024956,85835,239697,331817
1629709024966,85844,239681,331814
1629709024976,85837,239631,331791
1629709024986,85793,239617,331754
1629709024996,85751,239587,331760
1629709025006,85744,239566,331731
1629709025016,85707,239592,331744
1629709025026,85695,239562,331729
1629709025036,85653,239547,331728
1629709025046,85630,239540,331702
1629709025056,85606,239540,331752
1629709025066,85562,239536,331738
1629709025076,85551,239545,331735
1629709025086,85518,239505,331714
1629709025096,85504,239527,331741
1629709025106,85509,239509,331770
1629709025116,85492,239523,331805
1629709025126,85456,239510,331778
1629709025136,85452,239528,331766
1629709025146,85419,239500,331801
1629709025156,85416,239509,331764
1629709025166,85374,239524,331748
1629709025176,85360,239508,331728
1629709025186,85360,239494,331726
1629709025196,85345,239531,331734
1629709025206,85339,239552,331747
1629709025216,85333,239491,331718
1629709025226,85311,239509,331754
1629709025236,85306,239472,331751
1629709025246,85297,239487,331765
1629709025256,85274,239490,331754
1629709025266,85268,239511,331732
1629709025276,85261,239506,331767
1629709025286,85251,239497,331772
1629709025296,85239,239490,331802
1629709025306,85218,239513,331788
1629709025316,85207,239512,331779
1629709025326,85202,239517,331749
1629709025336,85199,239535,331772
1629709025346,85197,239542,331778
1629709025356,85183,239489,331784
1629709025366,85178,239532,331794
1629709025376,85177,239548,331763
1629709025386,85156,239509,331756
1629709025396,85158,239515,331784
1629709025406,85161,239536,331799
1629709025416,85142,239528,331786
1629709025426,85156,239547,331782
1629709025436,85155,239566,331799
1629709025446,85170,239564,331786
1629709025456,85179,239582,331839
1629709025466,85165,239607,331835
1629709025476,85177,239596,331833
1629709025486,85185,239613,331837
1629709025496,85189,239578,331862
1629709025506,85182,239597,331848
1629709025516,85203,239611,331857
1629709025526,85206,239611,331840
1629709025536,85222,239627,331846
1629709025546,85212,239625,331835
1629709025556,85211,239596,331840
1629709025566,85217,239583,331816
1629709025576,85219,239595,331857
1629709025586,85230,239630,331802
1629709025596,85249,239631,331841
1629709025606,85271,239673,331843
1629709025616,85279,239654,331877
1629709025626,85274,239692,331901
1629709025636,85302,239683,331910
1629709025646,85317,239701,331932
1629709025656,85303,239721,331948
1629709025666,85337,239687,331914
1629709025676,85355,239737,331960
1629709025686,85348,239742,331979
1629709025696,85379,239698,331971
1629709025706,85419,239733,331993
1629709025716,85414,239760,331986
1629709025726,85413,239753,331959
1629709025736,85415,239750,331979
1629709025746,85425,239790,331955
1629709025756,85430,239795,331964
1629709025766,85476,239780,332026
1629709025776,85501,239836,331989
1629709025786,85491,239801,332008
1629709025796,85508,239790,332011
1629709025806,85540,239860,332029
1629709025816,85541,239824,332025
1629709025826,85562,239827,332029
1629709025836,85579,239870,332024
1629709025846,85599,239871,332061
1629709025856,85621,239827,332047
1629709025866,85638,239868,332028
1629709025876,85649,239831,332038
1629709025886,85666,239824,331993
1629709025896,85644,239812,332010
1629709025906,85634,239809,332000
1629709025916,85631,239784,332000
1629709025926,85628,239768,331994
1629709025936,85608,239711,331978
1629709025946,85587,239706,331941
1629709025956,85561,239710,331955
1629709025966,85543,239665,331958
1629709025976,85505,239650,331939
1629709025986,85502,239641,331927
1629709025996,85471,239643,331928
1629709026006,85455,239656,331933
1629709026016,85440,239640,331936
1629709026026,85443,239659,331945
1629709026036,85409,239668,331947
1629709026046,85385,239673,331966
1629709026056,85367,239653,332010
1629709026066,85363,239649,332000
1629709026076,85334,239661,331994
1629709026086,85344,239673,331978
1629709026096,85337,239681,332024
1629709026106,85321,239643,331978
1629709026116,85306,239638,331967
1629709026126,85293,239641,331957
1629709026136,85287,239668,331960
1629709026146,85272,239699,332006
1629709026156,85287,239662,331968
1629709026166,85258,239625,331981
1629709026176,85276,239648,331968
1629709026186,85255,239637,331984
1629709026196,85246,239630,331972
1629709026206,85229,239660,331961
1629709026216,85218,239660,331985
1629709026226,85209,239670,331956
1629709026236,85201,239636,331989
1629709026246,85197,239642,331971
1629709026256,85197,239633,331992
1629709026266,85183,239649,331972
1629709026276,85166,239618,331946
1629709026286,85182,239645,331912
1629709026296,85171,239615,331911
1629709026306,85176,239617,331901
1629709026316,85180,239648,331909
1629709026326,85176,239620,331954
1629709026336,85176,239637,331949
1629709026346,85190,239623,331967
1629709026356,85173,239668,331954
1629709026366,85185,239634,331951
1629709026376,85192,239651,331941
1629709026386,85206,239671,331981
1629709026396,85197,239645,331964
1629709026406,85195,239677,331968
1629709026416,85199,239686,331954
1629709026426,85221,239655,331967
1629709026436,85217,239686,331954
1629709026446,85225,239658,331966
1629709026456,85227,239690,331928
1629709026466,85222,239670,331938
1629709026476,85243,239675,331949
1629709026486,85259,239693,331953
1629709026496,85261,239669,331916
1629709026506,85288,239716,331964
1629709026516,85260,239690,331934
1629709026526,85293,239683,331991
1629709026536,85311,239705,331957
1629709026546,85304,239735,331985
1629709026556,85309,239737,331996
1629709026566,85322,239722,331953
1629709026576,85354,239723,331971
1629709026586,85358,239733,331997
1629709026596,85350,239744,331984
1629709026606,85394,239756,331935
1629709026616,85400,239716,331941
1629709026626,85404,239734,331967
1629709026636,85426,239744,331971
1629709026646,85426,239751,331937
1629709026656,85440,239728,331928
1629709026666,85466,239767,331917
1629709026676,85493,239789,331998
1629709026686,85499,239778,331952
1629709026696,85500,239783,331934
1629709026706,85517,239774,331932
1629709026716,85532,239783,331952
1629709026726,85558,239788,331917
1629709026736,85587,239784,331935
1629709026746,85605,239782,331963
1629709026756,85599,239801,331925
1629709026766,85654,239790,331899
1629709026776,85659,239770,331926
1629709026786,85679,239824,331919
1629709026796,85691,239765,331924
1629709026806,85702,239750,331921
1629709026816,85719,239784,331898
1629709026826,85718,239731,331917
1629709026836,85704,239711,331871
1629709026846,85665,239670,331876
1629709026856,85668,239647,331849
1629709026866,85645,239637,331854
1629709026876,85622,239605,331841
1629709026886,85593,239626,331857
1629709026896,85575,239599,331840
1629709026906,85546,239572,331823
1629709026916,85525,239557,331799
1629709026926,85510,239576,331792
1629709026936,85491,239536,331756
1629709026946,85451,239549,331774
1629709026956,85425,239530,331793
1629709026966,85418,239533,331798
1629709026976,85373,239547,331787
1629709026986,85380,239552,331791
1629709026996,85366,239547,331825
1629709027006,85353,239539,331823
1629709027016,85320,239552,331805
1629709027026,85303,239535,331849
1629709027036,85277,239531,331841
1629709027046,85269,239559,331831
1629709027056,85261,239557,331865
1629709027066,85264,239552,331877
1629709027076,85248,239575,331855
1629709027086,85261,239561,331911
1629709027096,85223,239555,331925
1629709027106,85227,239594,331865
1629709027116,85221,239553,331858
1629709027126,85207,239580,331872
1629709027136,85198,239570,331838
1629709027146,85183,239537,331840
1629709027156,85160,239565,331915
1629709027166,85167,239570,331907
1629709027176,85155,239559,331897
1629709027186,85127,239549,331907
1629709027196,85134,239523,331882
1629709027206,85134,239595,331890
1629709027216,85115,239567,331920
1629709027226,85116,239575,331868
1629709027236,85116,239555,331895
1629709027246,85104,239559,331890
1629709027256,85100,239565,331876
1629709027266,85089,239532,331864
1629709027276,85086,239574,331893
1629709027286,85087,239579,331890
1629709027296,85100,239576,331929
1629709027306,85119,239551,331890
1629709027316,85108,239602,331904
1629709027326,85115,239589,331893
1629709027336,85106,239594,331878
1629709027346,85117,239571,331934
1629709027356,85128,239629,331912
1629709027366,85130,239610,331880
1629709027376,85138,239625,331930
1629709027386,85136,239670,331889
1629709027396,85157,239613,331893
1629709027406,85159,239631,331930
1629709027416,85178,239639,331931
1629709027426,85173,239663,331930
1629709027436,85189,239633,331937
1629709027446,85198,239663,331941
1629709027456,85175,239699,331934
1629709027466,85217,239671,331918
1629709027476,85221,239697,331958
1629709027486,85233,239668,331952
1629709027496,85261,239671,331947
1629709027506,85297,239738,331964
1629709027516,85297,239709,331946
1629709027526,85311,239710,331965
1629709027536,85314,239748,331950
1629709027546,85322,239689,331979
1629709027556,85334,239708,331954
1629709027566,85345,239731,331970
1629709027576,85354,239690,331980
1629709027586,85388,239696,331949
1629709027596,85387,239750,331981
1629709027606,85412,239748,332015
1629709027616,85433,239775,331978
1629709027626,85436,239769,331985
1629709027636,85438,239764,331984
1629709027646,85464,239789,332024
1629709027656,85497,239789,332012
1629709027666,85499,239795,331997
1629709027676,85558,239789,331958
1629709027686,85548,239830,332033
1629709027696,85558,239803,332025
1629709027706,85569,239791,332009
1629709027716,85593,239873,332017
1629709027726,85625,239839,332019
1629709027736,85642,239822,331998
1629709027746,85660,239830,332013
1629709027756,85664,239807,331968
1629709027766,85650,239754,331979
1629709027776,85648,239773,331950
1629709027786,85642,239733,331934
1629709027796,85622,239707,331966
1629709027806,85589,239687,331949
1629709027816,85546,239657,331937
1629709027826,85532,239674,331903
1629709027836,85505,239610,331910
1629709027846,85509,239621,331877
1629709027856,85488,239588,331883
1629709027866,85465,239555,331842
1629709027876,85434,239566,331858
1629709027886,85420,239522,331831
1629709027896,85399,239547,331837
1629709027906,85382,239550,331822
1629709027916,85366,239545,331835
1629709027926,85327,239534,331839
1629709027936,85297,239535,331805
1629709027946,85292,239542,331811
1629709027956,85274,239520,331839
1629709027966,85253,239524,331796
1629709027976,85250,239523,331801
1629709027986,85243,239501,331849
1629709027996,85216,239513,331846
1629709028006,85206,239517,331794
1629709028016,85188,239489,331797
1629709028026,85173,239545,331809
1629709028036,85186,239476,331806
1629709028046,85182,239487,331789
1629709028056,85159,239493,331801
1629709028066,85165,239474,331789
1629709028076,85153,239482,331770
1629709028086,85147,239466,331740
1629709028096,85126,239469,331783
1629709028106,85115,239470,331768
1629709028116,85127,239482,331826
1629709028126,85119,239496,331792
1629709028136,85089,239485,331810
1629709028146,85093,239492,331796
1629709028156,85068,239497,331791
1629709028166,85058,239466,331762
1629709028176,85081,239481,331775
1629709028186,85059,239471,331809
1629709028196,85077,239506,331777
1629709028206,85075,239517,331773
1629709028216,85072,239496,331773
1629709028226,85084,239522,331808
1629709028236,85076,239485,331798
1629709028246,85083,239528,331781
1629709028256,85088,239505,331772
1629709028266,85095,239516,331781
1629709028276,85094,239531,331795
1629709028286,85111,239522,331770
1629709028296,85103,239552,331814
1629709028306,85119,239519,331819
1629709028316,85128,239558,331809
1629709028326,85138,239561,331849
1629709028336,85141,239553,331824
1629709028346,85159,239596,331778
1629709028356,85157,239558,331856
1629709028366,85159,239565,331845
1629709028376,85177,239588,331814
1629709028386,85190,239580,331853
1629709028396,85205,239591,331836
1629709028406,85203,239611,331838
1629709028416,85226,239601,331824
1629709028426,85221,239598,331831
1629709028436,85232,239627,331860
1629709028446,85258,239643,331831
1629709028456,85271,239615,331826
1629709028466,85282,239624,331857
1629709028476,85285,239638,331892
1629709028486,85314,239671,331909
1629709028496,85314,239683,331872
1629709028506,85326,239669,331869
1629709028516,85343,239677,331901
1629709028526,85369,239640,331887
1629709028536,85365,239701,331886
1629709028546,85418,239698,331894
1629709028556,85432,239705,331918
1629709028566,85441,239711,331922
1629709028576,85446,239704,331910
1629709028586,85487,239752,331930
1629709028596,85486,239713,331936
1629709028606,85514,239756,331917
1629709028616,85528,239786,331934
1629709028626,85556,239746,331945
1629709028636,85554,239741,331921
1629709028646,85567,239768,331949
1629709028656,85587,239761,331938
1629709028666,85619,239801,331952
1629709028676,85643,239823,331960
1629709028686,85671,239786,331977
1629709028696,85692,239790,331962
1629709028706,85700,239784,331955
1629709028716,85717,239773,331939
1629709028726,85732,239774,331939
1629709028736,85702,239736,331902
1629709028746,85671,239691,331915
1629709028756,85683,239691,331887
1629709028766,85657,239664,331889
1629709028776,85615,239598,331892
1629709028786,85626,239615,331889
1629709028796,85574,239621,331871
1629709028806,85549,239608,331864
1629709028816,85531,239596,331812
1629709028826,85507,239575,331825
1629709028836,85477,239551,331814
1629709028846,85494,239537,331804
1629709028856,85465,239545,331811
1629709028866,85446,239507,331790
1629709028876,85444,239520,331827
1629709028886,85416,239518,331777
1629709028896,85398,239527,331828
1629709028906,85402,239494,331821
1629709028916,85380,239476,331792
1629709028926,85356,239515,331840
1629709028936,85359,239497,331832
1629709028946,85338,239493,331821
1629709028956,85319,239512,331838
1629709028966,85300,239518,331790
1629709028976,85294,239502,331796
1629709028986,85297,239507,331766
1629709028996,85298,239505,331841
1629709029006,85287,239473,331791
1629709029016,85278,239514,331786
1629709029026,85235,239501,331782
1629709029036,85261,239506,331807
1629709029046,85255,239494,331790
1629709029056,85238,239511,331825
1629709029066,85241,239490,331823
1629709029076,85212,239496,331781
1629709029086,85235,239491,331788
1629709029096,85222,239554,331783
1629709029106,85215,239518,331803
1629709029116,85194,239515,331796
1629709029126,85191,239513,331844
1629709029136,85194,239487,331829
1629709029146,85189,239533,331815
1629709029156,85198,239511,331848
1629709029166,85218,239515,331837
1629709029176,85209,239506,331815
1629709029186,85232,239542,331848
1629709029196,85218,239537,331796
1629709029206,85185,239561,331813
1629709029216,85218,239543,331816
1629709029226,85227,239579,331844
1629709029236,85253,239575,331842
1629709029246,85257,239596,331835
1629709029256,85251,239581,331834
1629709029266,85285,239578,331874
1629709029276,85264,239588,331838
1629709029286,85275,239580,331862
1629709029296,85299,239611,331807
1629709029306,85298,239611,331817
1629709029316,85303,239588,331750
1629709029326,85305,239599,331742
1629709029336,85337,239584,331717
1629709029346,85343,239592,331736
1629709029356,85361,239562,331737
1629709029366,85373,239590,331756
1629709029376,85390,239607,331772
1629709029386,85392,239601,331804
1629709029396,85419,239649,331815
1629709029406,85446,239653,331841
1629709029416,85455,239664,331855
1629709029426,85464,239685,331911
1629709029436,85481,239737,331902
1629709029446,85482,239701,331920
1629709029456,85503,239723,331904
1629709029466,85518,239729,331902
1629709029476,85540,239763,331943
1629709029486,85551,239750,331947
1629709029496,85587,239781,331959
1629709029506,85609,239810,331982
1629709029516,85605,239785,331955
1629709029526,85649,239822,332010
1629709029536,85660,239828,332001
1629709029546,85675,239820,331993
1629709029556,85697,239858,332043
1629709029566,85727,239853,332038
1629709029576,85752,239865,332059
1629709029586,85787,239858,332075
1629709029596,85785,239891,332065
1629709029606,85818,239885,332058
1629709029616,85819,239920,332062
1629709029626,85841,239915,332077
1629709029636,85864,239927,332056
1629709029646,85874,239913,332061
1629709029656,85902,239894,332046
1629709029666,85895,239872,332027
1629709029676,85885,239845,332057
1629709029686,85909,239814,332031
1629709029696,85878,239815,332016
1629709029706,85851,239809,332038
1629709029716,85841,239753,332012
1629709029726,85840,239772,332059
1629709029736,85810,239745,332040
1629709029746,85781,239728,331994
1629709029756,85777,239736,332000
1629709029766,85736,239685,332031
1629709029776,85733,239708,331978
1629709029786,85723,239687,331998
1629709029796,85712,239702,331991
1629709029806,85698,239667,332030
1629709029816,85679,239700,332017
1629709029826,85685,239668,332021
1629709029836,85687,239710,332024
1629709029846,85677,239724,332019
1629709029856,85665,239695,332010
1629709029866,85648,239692,332019
1629709029876,85651,239712,331995
1629709029886,85634,239695,332071
1629709029896,85645,239714,332006
1629709029906,85630,239720,332031
1629709029916,85639,239706,332030
1629709029926,85623,239735,332043
1629709029936,85624,239710,332031
1629709029946,85617,239752,332052
1629709029956,85621,239737,332052
1629709029966,85617,239758,332051
1629709029976,85607,239719,332058
1629709029986,85619,239722,332062
1629709029996,85615,239720,332071
1629709030006,85602,239746,332076
1629709030016,85615,239743,332069
1629709030026,85578,239740,332102
1629709030036,85612,239746,332098
1629709030046,85606,239751,332063
1629709030056,85606,239741,332065
1629709030066,85611,239743,332080
1629709030076,85612,239738,332079
1629709030086,85593,239762,332077
1629709030096,85613,239785,332099
1629709030106,85614,239756,332120
1629709030116,85610,239793,332099
1629709030126,85615,239795,332074
1629709030136,85644,239802,332141
1629709030146,85626,239796,332139
1629709030156,85649,239787,332133
1629709030166,85675,239784,332130
1629709030176,85654,239830,332180
1629709030186,85693,239835,332148
1629709030196,85682,239830,332170
1629709030206,85687,239820,332114
1629709030216,85691,239831,332161
1629709030226,85720,239866,332160
1629709030236,85735,239864,332167
1629709030246,85748,239861,332166
1629709030256,85737,239848,332177
1629709030266,85759,239859,332207
1629709030276,85759,239858,332209
1629709030286,85777,239890,332177
1629709030296,85784,239871,332200
1629709030306,85821,239899,332180
1629709030316,85825,239891,332218
1629709030326,85852,239908,332169
1629709030336,85854,239947,332209
1629709030346,85877,239883,332207
1629709030356,85893,239929,332195
1629709030366,85906,239904,332217
1629709030376,85914,239896,332201
1629709030386,85941,239927,332206
1629709030396,85952,239941,332207
1629709030406,85963,239948,332202
1629709030416,85967,239950,332216
1629709030426,85977,239961,332213
1629709030436,86004,239953,332211
1629709030446,86020,240003,332236
1629709030456,86037,239987,332221
1629709030466,86071,239993,332264
1629709030476,86094,240019,332243
1629709030486,86107,240032,332227
1629709030496,86133,240034,332268
1629709030506,86140,240004,332263
1629709030516,86145,240038,332231
1629709030526,86196,240044,332260
1629709030536,86213,240071,332230
1629709030546,86210,240062,332250
1629709030556,86213,240048,332264
1629709030566,86225,240016,332235
1629709030576,86200,239992,332197
1629709030586,86194,239968,332226
1629709030596,86201,239937,332204
1629709030606,86181,239890,332216
1629709030616,86146,239897,332217
1629709030626,86141,239887,332194
1629709030636,86112,239859,332167
1629709030646,86087,239883,332177
1629709030656,86063,239850,332145
1629709030666,86056,239812,332167
1629709030676,86013,239819,332126
1629709030686,86028,239809,332147
1629709030696,86002,239786,332114
1629709030706,85979,239800,332127
1629709030716,85976,239807,332126
1629709030726,85961,239785,332099
1629709030736,85934,239788,332140
1629709030746,85922,239778,332117
1629709030756,85917,239787,332137
1629709030766,85906,239784,332146
1629709030776,85885,239827,332151
1629709030786,85899,239805,332170
1629709030796,85899,239780,332149
1629709030806,85894,239791,332153
1629709030816,85885,239850,332158
1629709030826,85893,239812,332149
1629709030836,85878,239798,332134
1629709030846,85875,239783,332118
1629709030856,85876,239828,332135
1629709030866,85856,239793,332115
1629709030876,85864,239761,332101
1629709030886,85836,239734,332101
1629709030896,85856,239777,332123
1629709030906,85855,239802,332130
1629709030916,85825,239794,332091
1629709030926,85821,239802,332106
1629709030936,85814,239771,332099
1629709030946,85832,239785,332118
1629709030956,85827,239747,332076
1629709030966,85835,239784,332096
1629709030976,85811,239787,332106
1629709030986,85822,239782,332116
1629709030996,85815,239826,332151
1629709031006,85837,239807,332110
1629709031016,85840,239829,332125
1629709031026,85861,239830,332122
1629709031036,85865,239837,332172
1629709031046,85872,239850,332158
1629709031056,85861,239853,332140
1629709031066,85869,239841,332145
1629709031076,85865,239839,332147
1629709031086,85873,239905,332146
1629709031096,85899,239822,332146
1629709031106,85921,239879,332152
1629709031116,85932,239883,332163
1629709031126,85952,239894,332146
1629709031136,85937,239902,332180
1629709031146,85974,239927,332182
1629709031156,85961,239896,332191
1629709031166,85965,239922,332185
1629709031176,86002,239934,332214
1629709031186,86022,239929,332257
1629709031196,86017,239971,332252
1629709031206,86033,239951,332232
1629709031216,86061,239986,332300
1629709031226,86055,239990,332236
1629709031236,86065,239981,332240
1629709031246,86082,239957,332226
1629709031256,86097,239957,332246
1629709031266,86112,239998,332231
1629709031276,86133,239994,332230
1629709031286,86152,240017,332278
1629709031296,86163,240007,332268
1629709031306,86197,240039,332247
1629709031316,86212,240013,332304
1629709031326,86222,240071,332298
1629709031336,86241,240083,332312
1629709031346,86275,240067,332322
1629709031356,86274,240072,332322
1629709031366,86299,240095,332313
1629709031376,86302,240098,332305
1629709031386,86322,240111,332338
1629709031396,86340,240129,332341
1629709031406,86353,240140,332341
1629709031416,86379,240125,332346
1629709031426,86386,240144,332326
1629709031436,86431,240138,332331
1629709031446,86430,240101,332308
1629709031456,86445,240056,332315
1629709031466,86428,240059,332298
1629709031476,86405,240061,332291
1629709031486,86400,240012,332248
1629709031496,86376,239997,332269
1629709031506,86333,239949,332236
1629709031516,86334,239982,332233
1629709031526,86296,239911,332229
1629709031536,86281,239911,332222
1629709031546,86240,239910,332213
1629709031556,86207,239869,332231
1629709031566,86188,239861,332195
1629709031576,86169,239869,332165
1629709031586,86150,239885,332198
1629709031596,86143,239829,332188
1629709031606,86123,239827,332168
1629709031616,86097,239825,332202
1629709031626,86073,239804,332181
1629709031636,86037,239804,332181
1629709031646,86022,239777,332187
1629709031656,86005,239844,332213
1629709031666,85996,239809,332196
1629709031676,85970,239810,332209
1629709031686,85977,239843,332188
1629709031696,85965,239845,332204
1629709031706,85935,239868,332227
1629709031716,85936,239849,332252
1629709031726,85929,239834,332187
1629709031736,85914,239861,332209
1629709031746,85902,239849,332194
1629709031756,85906,239811,332181
1629709031766,85896,239828,332179
1629709031776,85879,239793,332189
1629709031786,85856,239835,332145
1629709031796,85867,239802,332166
1629709031806,85876,239802,332154
1629709031816,85835,239786,332205
1629709031826,85836,239840,332210
1629709031836,85807,239812,332178
1629709031846,85830,239823,332187
1629709031856,85810,239813,332200
1629709031866,85816,239850,332207
1629709031876,85814,239812,332199
1629709031886,85790,239811,332226
1629709031896,85784,239825,332194
1629709031906,85795,239849,332204
1629709031916,85814,239859,332210
1629709031926,85810,239825,332201
1629709031936,85791,239838,332203
1629709031946,85815,239832,332194
1629709031956,85815,239821,332213
1629709031966,85804,239861,332205
1629709031976,85830,239812,332208
1629709031986,85817,239845,332207
1629709031996,85851,239879,332179
1629709032006,85843,239873,332193
1629709032016,85868,239872,332194
1629709032026,85836,239895,332216
1629709032036,85860,239854,332202
1629709032046,85856,239873,332204
1629709032056,85871,239880,332252
1629709032066,85882,239915,332207
1629709032076,85905,239888,332226
1629709032086,85922,239898,332259
1629709032096,85929,239905,332258
1629709032106,85937,239908,332246
1629709032116,85961,239934,332211
1629709032126,85952,239945,332252
1629709032136,85959,239919,332234
1629709032146,85993,239933,332238
1629709032156,85989,239952,332243
1629709032166,86021,239970,332288
1629709032176,86034,239971,332282
1629709032186,86044,239980,332254
1629709032196,86047,239975,332296
1629709032206,86043,239988,332259
1629709032216,86056,239992,332287
1629709032226,86076,239981,332283
1629709032236,86093,240038,332299
1629709032246,86149,240003,332285
1629709032256,86145,240056,332342
1629709032266,86150,240051,332284
1629709032276,86175,240044,332321
1629709032286,86172,240047,332331
1629709032296,86181,240091,332304
1629709032306,86231,240071,332328
1629709032316,86259,240124,332329
1629709032326,86256,240062,332362
1629709032336,86292,240102,332377
1629709032346,86297,240087,332316
1629709032356,86301,240073,332346
1629709032366,86315,240078,332332
1629709032376,86326,240071,332350
1629709032386,86296,240053,332322
1629709032396,86288,240026,332318
1629709032406,86291,239967,332362
1629709032416,86260,239968,332272
1629709032426,86244,239955,332298
1629709032436,86218,239949,332297
1629709032446,86183,239894,332309
1629709032456,86147,239901,332296
1629709032466,86135,239912,332244
1629709032476,86090,239841,332274
1629709032486,86083,239820,332252
1629709032496,86060,239900,332250
1629709032506,86029,239852,332214
1629709032516,86009,239872,332279
1629709032526,85988,239847,332216
1629709032536,85965,239849,332264
1629709032546,85939,239825,332247
1629709032556,85915,239814,332261
1629709032566,85912,239866,332265
1629709032576,85870,239823,332250
1629709032586,85852,239810,332265
1629709032596,85851,239877,332307
1629709032606,85832,239871,332298
1629709032616,85819,239883,332281
1629709032626,85814,239855,332252
1629709032636,85807,239836,332288
1629709032646,85797,239856,332272
1629709032656,85753,239825,332293
1629709032666,85760,239838,332265
1629709032676,85731,239834,332216
1629709032686,85710,239816,332250
1629709032696,85698,239829,332223
1629709032706,85685,239849,332245
1629709032716,85675,239824,332207
1629709032726,85684,239822,332221
1629709032736,85682,239856,332273
1629709032746,85670,239865,332223
1629709032756,85652,239798,332246
1629709032766,85644,239850,332253
1629709032776,85639,239874,332273
1629709032786,85626,239836,332282
1629709032796,85636,239863,332246
1629709032806,85622,239903,332262
1629709032816,85623,239888,332282
1629709032826,85623,239843,332256
1629709032836,85606,239828,332215
1629709032846,85603,239844,332159
1629709032856,85603,239833,332106
1629709032866,85600,239813,332033
1629709032876,85585,239822,332058
1629709032886,85590,239828,332031
1629709032896,85594,239792,332086
1629709032906,85601,239847,332060
1629709032916,85584,239815,332102
1629709032926,85624,239871,332120
1629709032936,85596,239886,332150
1629709032946,85630,239879,332149
1629709032956,85633,239895,332174
1629709032966,85654,239893,332209
1629709032976,85658,239914,332193
1629709032986,85664,239930,332197
1629709032996,85667,239941,332233
1629709033006,85665,239910,332232
1629709033016,85689,239928,332223
1629709033026,85675,239955,332204
1629709033036,85684,239943,332207
1629709033046,85711,239933,332196
1629709033056,85725,239925,332192
1629709033066,85726,239943,332160
1629709033076,85750,239936,332172
1629709033086,85747,239982,332149
1629709033096,85766,239926,332144
1629709033106,85799,239964,332153
1629709033116,85784,239954,332143
1629709033126,85800,239923,332150
1629709033136,85812,239988,332159
1629709033146,85826,239974,332124
1629709033156,85832,239965,332122
1629709033166,85856,239948,332113
1629709033176,85857,239956,332129
1629709033186,85879,239989,332081
1629709033196,85886,239975,332119
1629709033206,85900,239996,332125
1629709033216,85913,239987,332095
1629709033226,85931,239997,332131
1629709033236,85954,240006,332113
1629709033246,85974,240024,332068
1629709033256,85990,240041,332091
1629709033266,85985,240030,332097
1629709033276,86016,240020,332100
1629709033286,86046,240081,332125
1629709033296,86060,240035,332116
1629709033306,86087,240016,332095
1629709033316,86093,240050,332101
1629709033326,86088,240020,332099
1629709033336,86101,239994,332097
1629709033346,86088,239972,332058
1629709033356,86069,239964,332026
1629709033366,86048,239931,332071
1629709033376,86010,239880,332027
1629709033386,85996,239871,331990
1629709033396,85972,239843,332020
1629709033406,85933,239843,331982
1629709033416,85900,239840,331990
1629709033426,85908,239767,331988
1629709033436,85854,239832,331951
1629709033446,85832,239766,331951
1629709033456,85815,239796,331938
1629709033466,85771,239770,331887
1629709033476,85775,239737,331918
1629709033486,85748,239778,331905
1629709033496,85706,239752,331943
1629709033506,85688,239748,331915
1629709033516,85668,239763,331942
1629709033526,85662,239785,331956
1629709033536,85632,239805,331966
1629709033546,85638,239758,331974
1629709033556,85623,239800,331992
1629709033566,85601,239747,331980
1629709033576,85592,239763,331968
1629709033586,85581,239773,331935
1629709033596,85561,239729,331944
1629709033606,85555,239771,331939
1629709033616,85541,239765,331932
1629709033626,85518,239759,331927
1629709033636,85517,239745,331913
1629709033646,85491,239709,331890
1629709033656,85484,239713,331838
1629709033666,85471,239746,331883
1629709033676,85480,239735,331898
1629709033686,85456,239744,331892
1629709033696,85445,239754,331905
1629709033706,85474,239729,331933
1629709033716,85422,239738,331960
1629709033726,85430,239729,331913
1629709033736,85435,239727,331948
1629709033746,85412,239757,331961
1629709033756,85409,239737,331930
1629709033766,85432,239742,331971
1629709033776,85413,239779,331923
1629709033786,85416,239760,331950
1629709033796,85420,239769,331916
1629709033806,85417,239775,331933
1629709033816,85408,239752,331905
1629709033826,85393,239762,331886
1629709033836,85408,239752,331886
1629709033846,85416,239760,331879
1629709033856,85424,239770,331860
1629709033866,85424,239762,331866
1629709033876,85432,239756,331858
1629709033886,85436,239778,331891
1629709033896,85455,239795,331875
1629709033906,85458,239764,331846
1629709033916,85449,239784,331828
1629709033926,85472,239775,331828
1629709033936,85459,239792,331829
1629709033946,85486,239802,331835
1629709033956,85508,239806,331811
1629709033966,85492,239797,331819
1629709033976,85492,239796,331846
1629709033986,85499,239801,331853
1629709033996,85514,239795,331841
1629709034006,85526,239799,331878
1629709034016,85536,239822,331848
1629709034026,85566,239827,331857
1629709034036,85584,239858,331865
1629709034046,85594,239847,331870
1629709034056,85605,239890,331878
1629709034066,85625,239888,331865
1629709034076,85618,239879,331853
1629709034086,85655,239930,331894
1629709034096,85674,239891,331903
1629709034106,85673,239902,331885
1629709034116,85688,239924,331894
1629709034126,85708,239938,331893
1629709034136,85736,239947,331895
1629709034146,85733,239962,331898
1629709034156,85744,239940,331930
1629709034166,85765,239944,331899
1629709034176,85802,239975,331936
1629709034186,85808,239979,331941
1629709034196,85837,239993,331921
1629709034206,85853,239997,331966
1629709034216,85879,240023,331963
1629709034226,85884,240043,331981
1629709034236,85906,240037,331990
1629709034246,85918,240029,331989
1629709034256,85947,240014,331949
1629709034266,85936,240036,331989
1629709034276,85964,240042,331955
