timestamp,green,ir,red
1630937420087,38108,215702,213303
1630937420097,38082,215629,213217
1630937420107,38051,215527,213140
1630937420117,38012,215489,213149
1630937420127,37978,215455,213086
1630937420137,37951,215426,213122
1630937420147,37928,215392,213101
1630937420157,37904,215359,213109
1630937420167,37887,215371,213111
1630937420177,37864,215326,213089
1630937420187,37843,215346,213119
1630937420197,37820,215312,213148
1630937420207,37799,215299,213117
1630937420217,37779,215245,213107
1630937420227,37762,215239,213134
1630937420237,37739,215226,213126
1630937420247,37718,215178,213138
1630937420257,37696,215188,213129
1630937420267,37667,215150,213168
1630937420277,37670,215142,213144
1630937420287,37643,215144,213180
1630937420297,37630,215154,213201
1630937420307,37640,215192,213244
1630937420317,37629,215187,213280
1630937420327,37628,215214,213312
1630937420337,37623,215217,213290
1630937420347,37609,215224,213326
1630937420357,37605,215208,213341
1630937420367,37599,215218,213367
1630937420377,37587,215248,213363
1630937420387,37584,215212,213340
1630937420397,37577,215236,213358
1630937420407,37574,215252,213415
1630937420417,37566,215270,213419
1630937420427,37565,215268,213416
1630937420437,37551,215285,213447
1630937420447,37552,215296,213500
1630937420457,37548,215323,213496
1630937420467,37522,215363,213503
1630937420477,37505,215295,213486
1630937420487,37486,215299,213472
1630937420497,37462,215281,213505
1630937420507,37439,215285,213499
1630937420517,37428,215328,213536
1630937420527,37419,215368,213581
1630937420537,37425,215404,213641
1630937420547,37429,215437,213678
1630937420557,37438,215534,213728
1630937420567,37454,215574,213811
1630937420577,37452,215664,213893
1630937420587,37479,215713,213959
1630937420597,37496,215785,214046
1630937420607,37516,215875,214120
1630937420617,37533,215981,214239
1630937420627,37557,216060,214326
1630937420637,37563,216108,214385
1630937420647,37570,216136,214448
1630937420657,37590,216220,214480
1630937420667,37595,216256,214548
1630937420677,37612,216334,214539
1630937420687,37636,216349,214641
1630937420697,37653,216416,214657
1630937420707,37662,216451,214684
1630937420717,37672,216482,214715
1630937420727,37695,216536,214761
1630937420737,37695,216565,214811
1630937420747,37704,216601,214812
1630937420757,37712,216630,214852
1630937420767,37727,216677,214883
1630937420777,37721,216670,214894
1630937420787,37755,216686,214908
1630937420797,37769,216705,214945
1630937420807,37772,216733,214936
1630937420817,37781,216762,214978
1630937420827,37796,216772,214979
1630937420837,37812,216756,215021
1630937420847,37824,216854,215066
1630937420857,37839,216856,215064
1630937420867,37846,216886,215094
1630937420877,37862,216932,215143
1630937420887,37872,216932,215171
1630937420897,37886,216974,215191
1630937420907,37898,217009,215216
1630937420917,37905,217022,215248
1630937420927,37933,217113,215278
1630937420937,37939,217139,215327
1630937420947,37959,217151,215378
1630937420957,37974,217177,215403
1630937420967,37990,217185,215395
1630937420977,38000,217221,215410
1630937420987,38018,217238,215424
1630937420997,38022,217203,215420
1630937421007,38013,217094,215302
1630937421017,37983,216979,215162
1630937421027,37952,216832,215069
1630937421037,37919,216726,215010
1630937421047,37879,216642,214926
1630937421057,37846,216555,214833
1630937421067,37814,216458,214810
1630937421077,37784,216476,214795
1630937421087,37767,216385,214779
1630937421097,37739,216322,214773
1630937421107,37720,216252,214707
1630937421117,37685,216202,214659
1630937421127,37664,216169,214621
1630937421137,37641,216069,214556
1630937421147,37614,215970,214539
1630937421157,37577,215931,214459
1630937421167,37560,215855,214420
1630937421177,37537,215804,214387
1630937421187,37512,215719,214361
1630937421197,37485,215678,214321
1630937421207,37456,215606,214267
1630937421217,37440,215557,214233
1630937421227,37418,215550,214217
1630937421237,37415,215520,214210
1630937421247,37404,215508,214179
1630937421257,37403,215547,214241
1630937421267,37424,215561,214258
1630937421277,37415,215558,214284
1630937421287,37423,215520,214243
1630937421297,37415,215538,214238
1630937421307,37422,215521,214254
1630937421317,37416,215518,214244
1630937421327,37414,215505,214268
1630937421337,37416,215530,214254
1630937421347,37419,215537,214293
1630937421357,37429,215538,214312
1630937421367,37426,215579,214341
1630937421377,37440,215554,214354
1630937421387,37443,215617,214404
1630937421397,37458,215603,214428
1630937421407,37447,215636,214449
1630937421417,37467,215627,214474
1630937421427,37483,215646,214495
1630937421437,37484,215676,214509
1630937421447,37494,215721,214550
1630937421457,37501,215687,214588
1630937421467,37521,215736,214581
1630937421477,37524,215758,214617
1630937421487,37542,215768,214629
1630937421497,37552,215803,214652
1630937421507,37564,215846,214683
1630937421517,37564,215852,214680
1630937421527,37572,215865,214686
1630937421537,37580,215917,214713
1630937421547,37592,215935,214775
1630937421557,37607,215962,214776
1630937421567,37606,216015,214805
1630937421577,37619,216045,214848
1630937421587,37641,216057,214865
1630937421597,37649,216132,214912
1630937421607,37672,216142,214920
1630937421617,37676,216208,214933
1630937421627,37687,216216,214968
1630937421637,37700,216219,215003
1630937421647,37717,216286,215027
1630937421657,37746,216313,215073
1630937421667,37749,216356,215069
1630937421677,37763,216389,215097
1630937421687,37776,216392,215125
1630937421697,37792,216399,215113
1630937421707,37800,216407,215128
1630937421717,37819,216441,215151
1630937421727,37833,216483,215166
1630937421737,37837,216482,215168
1630937421747,37857,216486,215207
1630937421757,37867,216558,215200
1630937421767,37892,216590,215232
1630937421777,37902,216636,215285
1630937421787,37925,216654,215294
1630937421797,37941,216697,215329
1630937421807,37954,216722,215348
1630937421817,37966,216752,215361
1630937421827,37977,216794,215386
1630937421837,37990,216823,215409
1630937421847,37984,216845,215383
1630937421857,37995,216802,215387
1630937421867,37978,216752,215360
1630937421877,37961,216681,215327
1630937421887,37935,216619,215232
1630937421897,37910,216564,215190
1630937421907,37882,216504,215146
1630937421917,37860,216479,215140
1630937421927,37842,216443,215170
1630937421937,37824,216421,215154
1630937421947,37804,216410,215104
1630937421957,37799,216394,215118
1630937421967,37795,216366,215157
1630937421977,37786,216359,215170
1630937421987,37780,216351,215167
1630937421997,37783,216364,215153
1630937422007,37764,216344,215163
1630937422017,37760,216320,215147
1630937422027,37754,216312,215170
1630937422037,37746,216307,215183
1630937422047,37735,216287,215175
1630937422057,37741,216288,215199
1630937422067,37737,216283,215219
1630937422077,37721,216333,215235
1630937422087,37746,216411,215319
1630937422097,37755,216422,215371
1630937422107,37771,216440,215442
1630937422117,37787,216523,215526
1630937422127,37799,216545,215559
1630937422137,37813,216566,215571
1630937422147,37828,216576,215588
1630937422157,37834,216608,215621
1630937422167,37841,216641,215643
1630937422177,37849,216628,215660
1630937422187,37858,216633,215633
1630937422197,37868,216635,215682
1630937422207,37872,216659,215694
1630937422217,37893,216672,215685
1630937422227,37886,216711,215713
1630937422237,37893,216693,215696
1630937422247,37903,216715,215691
1630937422257,37914,216716,215684
1630937422267,37915,216695,215681
1630937422277,37922,216704,215700
1630937422287,37931,216740,215712
1630937422297,37952,216761,215731
1630937422307,37966,216768,215774
1630937422317,37984,216815,215791
1630937422327,37990,216866,215856
1630937422337,38020,216882,215879
1630937422347,38031,216935,215915
1630937422357,38054,216973,215954
1630937422367,38071,217029,215960
1630937422377,38092,217008,216019
1630937422387,38103,217043,216031
1630937422397,38117,217114,216045
1630937422407,38152,217151,216081
1630937422417,38161,217173,216105
1630937422427,38182,217148,216124
1630937422437,38197,217258,216137
1630937422447,38212,217254,216153
1630937422457,38235,217271,216145
1630937422467,38247,217269,216188
1630937422477,38263,217287,216187
1630937422487,38272,217259,216145
1630937422497,38287,217291,216182
1630937422507,38310,217341,216207
1630937422517,38330,217357,216243
1630937422527,38353,217364,216247
1630937422537,38354,217405,216219
1630937422547,38374,217444,216263
1630937422557,38409,217428,216278
1630937422567,38427,217525,216314
1630937422577,38435,217529,216371
1630937422587,38459,217590,216381
1630937422597,38474,217617,216401
1630937422607,38495,217619,216448
1630937422617,38517,217697,216442
1630937422627,38535,217693,216495
1630937422637,38558,217743,216495
1630937422647,38575,217746,216530
1630937422657,38596,217795,216525
1630937422667,38614,217783,216555
1630937422677,38633,217792,216546
1630937422687,38649,217826,216529
1630937422697,38653,217828,216516
1630937422707,38669,217831,216493
1630937422717,38688,217797,216478
1630937422727,38676,217766,216432
1630937422737,38676,217681,216323
1630937422747,38653,217540,216226
1630937422757,38634,217461,216113
1630937422767,38599,217348,216026
1630937422777,38575,217286,215990
1630937422787,38565,217243,215932
1630937422797,38545,217211,215921
1630937422807,38544,217202,215947
1630937422817,38559,217233,215980
1630937422827,38553,217210,216032
1630937422837,38542,217209,216018
1630937422847,38538,217199,216015
1630937422857,38535,217201,215984
1630937422867,38565,217226,216062
1630937422877,38574,217271,216117
1630937422887,38572,217248,216186
1630937422897,38570,217223,216121
1630937422907,38548,217150,216070
1630937422917,38546,217073,216038
1630937422927,38545,216955,215976
1630937422937,38528,216879,215906
1630937422947,38519,216793,215859
1630937422957,38532,216790,215900
1630937422967,38565,216828,215952
1630937422977,38604,216866,216026
1630937422987,38628,216783,215997
1630937422997,38650,216770,215949
1630937423007,38657,216665,215897
1630937423017,38690,216696,215993
1630937423027,38725,216681,216003
1630937423037,38756,216686,216045
1630937423047,38787,216722,216082
1630937423057,38833,216769,216187
1630937423067,38866,216892,216357
1630937423077,38909,216990,216470
1630937423087,38945,217009,216551
1630937423097,38964,217159,216709
1630937423107,38999,217197,216738
1630937423117,39027,217367,216908
1630937423127,39060,217447,217033
1630937423137,39089,217564,217116
1630937423147,39090,217636,217168
1630937423157,39100,217696,217217
1630937423167,39089,217754,217207
1630937423177,39067,217725,217198
1630937423187,39051,217803,217195
1630937423197,39028,217942,217295
1630937423207,39035,218063,217363
1630937423217,39061,218178,217453
1630937423227,39047,218133,217389
1630937423237,39020,218044,217279
1630937423247,38971,217885,217027
1630937423257,38936,217716,216816
1630937423267,38917,217719,216779
1630937423277,38917,217724,216716
1630937423287,38909,217684,216686
1630937423297,38911,217639,216539
1630937423307,38890,217567,216433
1630937423317,38881,217524,216314
1630937423327,38884,217536,216289
1630937423337,38890,217540,216292
1630937423347,38895,217539,216216
1630937423357,38892,217495,216173
1630937423367,38893,217482,216129
1630937423377,38916,217580,216134
1630937423387,38920,217580,216134
1630937423397,38937,217664,216145
1630937423407,38953,217739,216211
1630937423417,38975,217814,216280
1630937423427,38995,217884,216264
1630937423437,39022,217966,216330
1630937423447,39052,218029,216426
1630937423457,39076,218143,216517
1630937423467,39110,218286,216608
1630937423477,39140,218366,216685
1630937423487,39176,218490,216781
1630937423497,39216,218607,216917
1630937423507,39244,218690,216976
1630937423517,39276,218769,217089
1630937423527,39292,218884,217138
1630937423537,39334,218986,217263
1630937423547,39354,219004,217295
1630937423557,39393,219075,217366
1630937423567,39392,219034,217329
1630937423577,39403,218974,217257
1630937423587,39389,218883,217203
1630937423597,39372,218774,217109
1630937423607,39358,218698,217085
1630937423617,39337,218657,217074
1630937423627,39322,218651,217050
1630937423637,39302,218558,217007
1630937423647,39271,218499,216942
1630937423657,39246,218431,216863
1630937423667,39231,218356,216780
1630937423677,39200,218287,216744
1630937423687,39196,218263,216708
1630937423697,39181,218171,216630
1630937423707,39147,218149,216572
1630937423717,39138,218095,216569
1630937423727,39128,218095,216526
1630937423737,39115,218072,216502
1630937423747,39102,218072,216490
1630937423757,39082,218034,216453
1630937423767,39066,218033,216403
1630937423777,39044,217998,216393
1630937423787,39030,217959,216347
1630937423797,39018,217993,216365
1630937423807,39016,217979,216361
1630937423817,39021,218067,216383
1630937423827,39012,218034,216401
1630937423837,39016,218073,216390
1630937423847,39028,218090,216394
1630937423857,39041,218061,216400
1630937423867,39047,218055,216380
1630937423877,39047,218070,216396
1630937423887,39044,218079,216343
1630937423897,39046,218025,216312
1630937423907,39037,218013,216306
1630937423917,39039,218016,216314
1630937423927,39039,217998,216316
1630937423937,39048,218015,216334
1630937423947,39052,218015,216351
1630937423957,39062,218025,216346
1630937423967,39063,218013,216326
1630937423977,39065,218009,216335
1630937423987,39082,218019,216338
1630937423997,39089,218049,216351
1630937424007,39107,218043,216404
1630937424017,39114,218126,216401
1630937424027,39133,218137,216461
1630937424037,39151,218122,216475
1630937424047,39165,218172,216545
1630937424057,39194,218212,216581
1630937424067,39217,218300,216662
1630937424077,39258,218316,216736
1630937424087,39270,218380,216769
1630937424097,39297,218397,216801
1630937424107,39298,218363,216798
1630937424117,39317,218372,216786
1630937424127,39323,218432,216808
1630937424137,39318,218338,216744
1630937424147,39315,218306,216722
1630937424157,39307,218294,216658
1630937424167,39306,218216,216594
1630937424177,39300,218181,216514
1630937424187,39292,218136,216489
1630937424197,39282,218152,216443
1630937424207,39270,218063,216357
1630937424217,39259,217986,216273
1630937424227,39252,217921,216178
1630937424237,39238,217907,216118
1630937424247,39233,217841,216051
1630937424257,39220,217803,215967
1630937424267,39212,217719,215881
1630937424277,39200,217647,215791
1630937424287,39196,217623,215714
1630937424297,39188,217581,215719
1630937424307,39189,217579,215660
1630937424317,39182,217560,215636
1630937424327,39195,217580,215625
1630937424337,39211,217590,215653
1630937424347,39225,217629,215679
1630937424357,39225,217648,215664
1630937424367,39235,217667,215666
1630937424377,39232,217690,215715
1630937424387,39261,217748,215748
1630937424397,39278,217789,215772
1630937424407,39279,217737,215764
1630937424417,39272,217709,215677
1630937424427,39244,217606,215561
1630937424437,39229,217538,215480
1630937424447,39208,217434,215410
1630937424457,39177,217341,215340
1630937424467,39152,217288,215272
1630937424477,39136,217225,215279
1630937424487,39110,217192,215251
1630937424497,39105,217224,215290
1630937424507,39093,217236,215307
1630937424517,39086,217249,215372
1630937424527,39077,217248,215392
1630937424537,39062,217254,215411
1630937424547,39055,217273,215421
1630937424557,39041,217274,215436
1630937424567,39030,217295,215435
1630937424577,39018,217251,215455
1630937424587,39002,217261,215452
1630937424597,39000,217280,215452
1630937424607,38991,217311,215502
1630937424617,38978,217312,215533
1630937424627,38963,217336,215573
1630937424637,38971,217339,215633
1630937424647,38962,217362,215660
1630937424657,38956,217455,215749
1630937424667,38954,217443,215771
1630937424677,38950,217512,215824
1630937424687,38940,217488,215826
1630937424697,38938,217495,215852
1630937424707,38925,217479,215827
1630937424717,38914,217455,215816
1630937424727,38902,217434,215803
1630937424737,38894,217419,215774
1630937424747,38888,217437,215778
1630937424757,38882,217377,215773
1630937424767,38885,217403,215786
1630937424777,38873,217420,215790
1630937424787,38876,217410,215809
1630937424797,38885,217440,215830
1630937424807,38883,217444,215864
1630937424817,38877,217484,215914
1630937424827,38879,217486,215908
1630937424837,38871,217520,215917
1630937424847,38881,217536,215928
1630937424857,38877,217542,215980
1630937424867,38888,217547,216011
1630937424877,38883,217607,216040
1630937424887,38903,217640,216101
1630937424897,38921,217694,216142
1630937424907,38926,217761,216217
1630937424917,38943,217829,216251
1630937424927,38951,217845,216289
1630937424937,38967,217881,216309
1630937424947,38970,217906,216378
1630937424957,38976,217946,216394
1630937424967,38983,218002,216458
1630937424977,39000,218003,216431
1630937424987,39006,218050,216489
1630937424997,39020,218108,216554
1630937425007,39031,218120,216573
1630937425017,39035,218175,216598
1630937425027,39037,218202,216644
1630937425037,39041,218258,216677
1630937425047,39061,218302,216684
1630937425057,39066,218307,216729
1630937425067,39073,218348,216766
1630937425077,39076,218345,216761
1630937425087,39078,218349,216752
1630937425097,39077,218360,216777
1630937425107,39084,218382,216775
1630937425117,39091,218448,216783
1630937425127,39100,218447,216806
1630937425137,39108,218469,216838
1630937425147,39130,218492,216873
1630937425157,39125,218516,216878
1630937425167,39122,218542,216910
1630937425177,39137,218572,216949
1630937425187,39149,218600,216936
1630937425197,39154,218655,216972
1630937425207,39161,218680,216992
1630937425217,39180,218712,217011
1630937425227,39188,218755,217057
1630937425237,39200,218784,217115
1630937425247,39213,218839,217089
1630937425257,39221,218847,217123
1630937425267,39228,218878,217169
1630937425277,39236,218875,217166
1630937425287,39237,218839,217139
1630937425297,39223,218801,217045
1630937425307,39182,218678,216972
1630937425317,39142,218581,216865
1630937425327,39096,218438,216730
1630937425337,39061,218337,216651
1630937425347,39008,218253,216574
1630937425357,38962,218165,216530
1630937425367,38936,218155,216541
1630937425377,38899,218120,216509
1630937425387,38873,218059,216502
1630937425397,38846,218063,216483
1630937425407,38810,218022,216493
1630937425417,38785,217930,216453
1630937425427,38754,217901,216394
1630937425437,38725,217862,216369
1630937425447,38690,217844,216345
1630937425457,38682,217813,216377
1630937425467,38656,217778,216312
1630937425477,38623,217766,216325
1630937425487,38605,217706,216301
1630937425497,38571,217690,216276
1630937425507,38546,217713,216317
1630937425517,38516,217671,216294
1630937425527,38519,217612,216316
1630937425537,38501,217621,216325
1630937425547,38484,217664,216322
1630937425557,38475,217626,216307
1630937425567,38464,217600,216281
1630937425577,38449,217591,216248
1630937425587,38430,217512,216211
1630937425597,38416,217504,216174
1630937425607,38393,217450,216124
1630937425617,38370,217357,216066
1630937425627,38343,217324,216007
1630937425637,38322,217244,215941
1630937425647,38287,217189,215883
1630937425657,38270,217134,215831
1630937425667,38247,217062,215770
1630937425677,38227,217040,215730
1630937425687,38212,216959,215685
1630937425697,38191,216947,215622
1630937425707,38172,216911,215606
1630937425717,38161,216859,215586
1630937425727,38157,216839,215575
1630937425737,38141,216816,215564
1630937425747,38134,216786,215520
1630937425757,38126,216773,215515
1630937425767,38128,216738,215493
1630937425777,38120,216774,215480
1630937425787,38118,216750,215493
1630937425797,38102,216785,215455
1630937425807,38113,216788,215461
1630937425817,38112,216768,215477
1630937425827,38118,216810,215486
1630937425837,38117,216822,215509
1630937425847,38113,216778,215506
1630937425857,38119,216792,215519
1630937425867,38120,216835,215525
1630937425877,38121,216835,215512
1630937425887,38124,216851,215524
1630937425897,38140,216879,215537
1630937425907,38150,216873,215548
1630937425917,38142,216885,215517
1630937425927,38151,216874,215542
1630937425937,38150,216872,215518
1630937425947,38147,216847,215520
1630937425957,38138,216874,215504
1630937425967,38141,216892,215481
1630937425977,38152,216830,215454
1630937425987,38138,216825,215442
1630937425997,38152,216827,215435
1630937426007,38155,216820,215419
1630937426017,38153,216816,215399
1630937426027,38156,216810,215418
1630937426037,38161,216844,215419
1630937426047,38162,216828,215379
1630937426057,38167,216822,215377
1630937426067,38175,216843,215402
1630937426077,38174,216813,215335
1630937426087,38151,216697,215223
1630937426097,38124,216579,215085
1630937426107,38071,216394,214907
1630937426117,38036,216288,214757
1630937426127,37998,216142,214669
1630937426137,37943,216001,214552
1630937426147,37899,215888,214404
1630937426157,37857,215751,214309
1630937426167,37824,215695,214216
1630937426177,37808,215605,214157
1630937426187,37806,215577,214137
1630937426197,37796,215546,214199
1630937426207,37779,215494,214175
1630937426217,37754,215408,214075
1630937426227,37712,215299,214002
1630937426237,37692,215274,213979
1630937426247,37672,215295,214001
1630937426257,37649,215272,213962
1630937426267,37622,215198,213941
1630937426277,37586,215109,213859
1630937426287,37560,215040,213763
1630937426297,37530,214952,213676
1630937426307,37499,214823,213577
1630937426317,37478,214756,213538
1630937426327,37454,214711,213462
1630937426337,37448,214627,213441
1630937426347,37440,214633,213386
1630937426357,37429,214579,213337
1630937426367,37424,214563,213361
1630937426377,37428,214543,213367
1630937426387,37416,214502,213290
1630937426397,37399,214457,213263
1630937426407,37399,214446,213263
1630937426417,37389,214460,213258
1630937426427,37385,214407,213254
1630937426437,37379,214452,213236
1630937426447,37365,214350,213214
1630937426457,37363,214357,213206
1630937426467,37354,214362,213194
1630937426477,37360,214377,213211
1630937426487,37362,214422,213267
1630937426497,37378,214487,213359
1630937426507,37395,214579,213420
1630937426517,37406,214642,213505
1630937426527,37426,214699,213600
1630937426537,37434,214717,213611
1630937426547,37445,214779,213619
1630937426557,37460,214800,213699
1630937426567,37482,214900,213761
1630937426577,37491,214939,213845
1630937426587,37499,214976,213868
1630937426597,37505,214978,213855
1630937426607,37539,215029,213888
1630937426617,37542,215064,213923
1630937426627,37550,215071,213975
1630937426637,37545,215047,213905
1630937426647,37552,215001,213856
1630937426657,37551,214981,213820
1630937426667,37560,215005,213832
1630937426677,37567,214999,213820
1630937426687,37587,215016,213840
1630937426697,37586,215010,213828
1630937426707,37592,214994,213808
1630937426717,37600,215043,213866
1630937426727,37604,215068,213875
1630937426737,37617,215085,213901
1630937426747,37620,215113,213879
1630937426757,37618,215093,213858
1630937426767,37629,215121,213883
1630937426777,37625,215161,213896
1630937426787,37659,215164,213892
1630937426797,37656,215163,213890
1630937426807,37662,215174,213893
1630937426817,37671,215229,213933
1630937426827,37688,215270,213988
1630937426837,37701,215306,214020
1630937426847,37730,215332,214063
1630937426857,37751,215356,214131
1630937426867,37758,215428,214184
1630937426877,37766,215463,214201
1630937426887,37750,215403,214202
1630937426897,37744,215321,214103
1630937426907,37720,215234,214086
1630937426917,37683,215179,214084
1630937426927,37660,215140,214093
1630937426937,37634,215100,214100
1630937426947,37599,215100,214122
1630937426957,37563,215082,214127
1630937426967,37532,215039,214133
1630937426977,37501,215045,214149
1630937426987,37484,214990,214129
1630937426997,37467,215045,214218
1630937427007,37452,215031,214220
1630937427017,37442,215062,214243
1630937427027,37431,215056,214264
1630937427037,37435,215075,214306
1630937427047,37435,215126,214360
1630937427057,37442,215162,214426
1630937427067,37438,215156,214480
1630937427077,37432,215157,214515
1630937427087,37432,215192,214530
1630937427097,37433,215192,214602
1630937427107,37437,215200,214629
1630937427117,37448,215229,214644
1630937427127,37467,215301,214722
1630937427137,37477,215368,214826
1630937427147,37505,215408,214874
1630937427157,37518,215475,214936
1630937427167,37528,215485,214969
1630937427177,37550,215550,215021
1630937427187,37562,215557,215093
1630937427197,37573,215599,215109
1630937427207,37582,215623,215116
1630937427217,37588,215649,215152
1630937427227,37599,215644,215167
1630937427237,37614,215663,215210
1630937427247,37614,215689,215204
1630937427257,37622,215716,215225
1630937427267,37650,215723,215276
1630937427277,37658,215796,215373
1630937427287,37675,215852,215414
1630937427297,37683,215871,215453
1630937427307,37694,215922,215479
1630937427317,37705,215980,215513
1630937427327,37734,216021,215565
1630937427337,37751,216091,215613
1630937427347,37777,216117,215710
1630937427357,37800,216228,215752
1630937427367,37841,216354,215918
1630937427377,37890,216506,216076
1630937427387,37924,216654,216245
1630937427397,37966,216734,216380
1630937427407,38006,216892,216513
1630937427417,38048,217010,216628
1630937427427,38084,217091,216762
1630937427437,38094,217152,216800
1630937427447,38112,217148,216820
1630937427457,38127,217213,216850
1630937427467,38132,217196,216837
1630937427477,38135,217105,216771
1630937427487,38142,217054,216715
1630937427497,38154,217064,216716
1630937427507,38165,217039,216694
1630937427517,38163,217051,216687
1630937427527,38162,216968,216644
1630937427537,38171,216926,216587
1630937427547,38182,216935,216604
1630937427557,38183,216901,216554
1630937427567,38183,216836,216482
1630937427577,38166,216745,216386
1630937427587,38160,216628,216234
1630937427597,38140,216555,216088
1630937427607,38105,216466,215991
1630937427617,38079,216380,215834
1630937427627,38040,216209,215657
1630937427637,38015,216069,215455
1630937427647,37985,215908,215259
1630937427657,37958,215765,215089
1630937427667,37934,215642,214919
1630937427677,37915,215523,214761
1630937427687,37913,215440,214644
1630937427697,37908,215386,214633
1630937427707,37923,215398,214669
1630937427717,37938,215444,214740
1630937427727,37945,215413,214834
1630937427737,37957,215418,214853
1630937427747,37967,215391,214882
1630937427757,37979,215401,214956
1630937427767,38004,215481,215027
1630937427777,38019,215483,215075
1630937427787,38032,215483,215116
1630937427797,38033,215472,215130
1630937427807,38035,215448,215126
1630937427817,38041,215415,215088
1630937427827,38036,215427,215108
1630937427837,38045,215433,215112
1630937427847,38055,215461,215134
1630937427857,38055,215456,215169
1630937427867,38066,215453,215165
1630937427877,38067,215508,215200
1630937427887,38083,215581,215315
1630937427897,38105,215742,215477
1630937427907,38147,215865,215617
1630937427917,38191,215996,215811
1630937427927,38217,216100,215913
1630937427937,38251,216146,215974
1630937427947,38285,216222,216059
1630937427957,38321,216328,216137
1630937427967,38358,216481,216300
1630937427977,38396,216592,216406
1630937427987,38418,216632,216405
1630937427997,38424,216593,216384
1630937428007,38411,216500,216276
1630937428017,38410,216428,216202
1630937428027,38404,216371,216138
1630937428037,38407,216359,216053
1630937428047,38400,216272,215963
1630937428057,38383,216222,215799
1630937428067,38372,216178,215705
1630937428077,38376,216108,215606
1630937428087,38371,216128,215581
1630937428097,38365,216136,215543
1630937428107,38363,216135,215471
1630937428117,38368,216175,215399
1630937428127,38383,216189,215450
1630937428137,38407,216329,215509
1630937428147,38433,216385,215578
1630937428157,38448,216475,215626
1630937428167,38471,216512,215665
1630937428177,38490,216626,215705
1630937428187,38522,216733,215773
1630937428197,38533,216813,215828
1630937428207,38551,216843,215871
1630937428217,38583,216923,215915
1630937428227,38594,217010,215974
1630937428237,38616,217126,216026
1630937428247,38643,217145,216085
1630937428257,38673,217234,216131
1630937428267,38699,217288,216217
1630937428277,38729,217356,216282
1630937428287,38747,217459,216338
1630937428297,38771,217508,216354
1630937428307,38788,217558,216405
1630937428317,38815,217586,216426
1630937428327,38830,217643,216445
1630937428337,38846,217633,216456
1630937428347,38859,217647,216466
1630937428357,38870,217639,216416
1630937428367,38885,217680,216437
1630937428377,38901,217719,216445
1630937428387,38935,217716,216449
1630937428397,38951,217749,216470
1630937428407,38984,217819,216583
1630937428417,39009,217842,216643
1630937428427,39027,217908,216701
1630937428437,39050,217992,216776
1630937428447,39078,218053,216828
1630937428457,39108,218188,216918
1630937428467,39140,218253,216994
1630937428477,39166,218322,217050
1630937428487,39202,218416,217129
1630937428497,39232,218465,217218
1630937428507,39254,218536,217254
1630937428517,39274,218566,217305
1630937428527,39275,218563,217253
1630937428537,39277,218466,217224
1630937428547,39273,218411,217128
1630937428557,39260,218302,217046
1630937428567,39243,218219,217009
1630937428577,39222,218202,216975
1630937428587,39214,218144,216924
1630937428597,39206,218103,216925
1630937428607,39194,218079,216895
1630937428617,39192,218068,216931
1630937428627,39200,218071,216939
1630937428637,39201,218080,216946
1630937428647,39200,218061,216945
1630937428657,39201,218042,216936
1630937428667,39202,218044,216943
1630937428677,39206,217977,216931
1630937428687,39213,218018,216945
1630937428697,39211,217998,216957
1630937428707,39206,218001,216966
1630937428717,39210,218010,216964
1630937428727,39206,217992,216932
1630937428737,39213,218002,216957
1630937428747,39215,217995,216958
1630937428757,39216,217983,216990
1630937428767,39224,218021,216992
1630937428777,39237,218067,217062
1630937428787,39252,218075,217090
1630937428797,39262,218111,217111
1630937428807,39261,218134,217142
1630937428817,39278,218160,217153
1630937428827,39292,218174,217179
1630937428837,39296,218207,217209
1630937428847,39304,218217,217202
1630937428857,39280,218236,217205
1630937428867,39303,218208,217217
1630937428877,39312,218248,217229
1630937428887,39314,218245,217234
1630937428897,39328,218245,217226
1630937428907,39322,218246,217245
1630937428917,39332,218274,217237
1630937428927,39342,218263,217201
1630937428937,39338,218282,217246
1630937428947,39352,218279,217226
1630937428957,39358,218314,217258
1630937428967,39376,218339,217278
1630937428977,39378,218361,217304
1630937428987,39389,218409,217338
1630937428997,39402,218441,217348
1630937429007,39419,218438,217365
1630937429017,39436,218486,217378
1630937429027,39450,218494,217403
1630937429037,39463,218559,217451
1630937429047,39477,218596,217461
1630937429057,39484,218604,217472
1630937429067,39499,218620,217479
1630937429077,39519,218650,217508
1630937429087,39537,218653,217536
1630937429097,39553,218704,217556
1630937429107,39561,218724,217574
1630937429117,39577,218716,217551
1630937429127,39586,218779,217594
1630937429137,39587,218744,217582
1630937429147,39605,218821,217596
1630937429157,39620,218834,217624
1630937429167,39627,218872,217671
1630937429177,39643,218895,217656
1630937429187,39654,218919,217666
1630937429197,39665,218913,217711
1630937429207,39674,218970,217702
1630937429217,39691,218974,217725
1630937429227,39696,219046,217729
1630937429237,39718,219041,217737
1630937429247,39728,219050,217770
1630937429257,39744,219078,217776
1630937429267,39760,219053,217773
1630937429277,39775,219112,217838
1630937429287,39799,219153,217813
1630937429297,39811,219187,217863
1630937429307,39829,219194,217879
1630937429317,39847,219182,217854
1630937429327,39850,219207,217852
1630937429337,39862,219177,217816
1630937429347,39844,219124,217735
1630937429357,39817,218950,217587
1630937429367,39780,218864,217445
1630937429377,39761,218721,217314
1630937429387,39716,218608,217259
1630937429397,39690,218509,217153
1630937429407,39667,218420,217078
1630937429417,39644,218350,217024
1630937429427,39623,218324,217011
1630937429437,39611,218321,217007
1630937429447,39601,218323,216991
1630937429457,39588,218272,216968
1630937429467,39571,218239,216949
1630937429477,39560,218247,216939
1630937429487,39549,218217,216894
1630937429497,39534,218208,216879
1630937429507,39528,218202,216858
1630937429517,39506,218152,216886
1630937429527,39503,218142,216877
1630937429537,39501,218144,216837
1630937429547,39478,218139,216849
1630937429557,39483,218160,216890
1630937429567,39490,218159,216893
1630937429577,39499,218221,216962
1630937429587,39504,218261,216991
1630937429597,39508,218269,216984
1630937429607,39506,218266,216994
1630937429617,39518,218303,217029
1630937429627,39519,218311,217075
1630937429637,39509,218296,217038
1630937429647,39516,218298,217047
1630937429657,39513,218283,217052
1630937429667,39523,218323,217064
1630937429677,39518,218357,217070
1630937429687,39520,218324,217059
1630937429697,39516,218363,217092
1630937429707,39528,218381,217120
1630937429717,39519,218383,217141
1630937429727,39520,218392,217139
1630937429737,39521,218398,217125
1630937429747,39526,218428,217152
1630937429757,39524,218451,217159
1630937429767,39518,218433,217151
1630937429777,39515,218446,217163
1630937429787,39522,218459,217135
1630937429797,39517,218450,217136
1630937429807,39518,218454,217152
1630937429817,39518,218463,217133
1630937429827,39529,218543,217154
1630937429837,39527,218489,217154
1630937429847,39522,218500,217192
1630937429857,39529,218558,217196
1630937429867,39543,218539,217226
1630937429877,39552,218603,217250
1630937429887,39568,218625,217332
1630937429897,39567,218650,217329
1630937429907,39570,218652,217319
1630937429917,39575,218671,217303
1630937429927,39591,218706,217364
1630937429937,39601,218736,217382
1630937429947,39614,218834,217434
1630937429957,39628,218800,217438
1630937429967,39627,218821,217443
1630937429977,39644,218848,217505
1630937429987,39659,218899,217502
1630937429997,39662,218902,217522
1630937430007,39669,218894,217530
1630937430017,39664,218933,217537
1630937430027,39681,218922,217570
1630937430037,39673,218967,217583
1630937430047,39683,219002,217548
1630937430057,39689,219019,217594
1630937430067,39694,219031,217614
1630937430077,39699,219075,217631
1630937430087,39702,219042,217590
1630937430097,39716,219109,217618
1630937430107,39721,219120,217596
1630937430117,39711,219115,217596
1630937430127,39712,219050,217550
1630937430137,39689,218974,217433
1630937430147,39661,218850,217311
1630937430157,39617,218710,217154
1630937430167,39583,218553,217066
1630937430177,39539,218423,216937
1630937430187,39484,218355,216850
1630937430197,39446,218234,216777
1630937430207,39417,218187,216732
1630937430217,39385,218185,216723
1630937430227,39365,218146,216721
1630937430237,39334,218111,216708
1630937430247,39317,218088,216723
1630937430257,39289,218104,216692
1630937430267,39272,218061,216704
1630937430277,39250,218125,216754
1630937430287,39223,218076,216727
1630937430297,39201,218039,216754
1630937430307,39176,218007,216730
1630937430317,39144,218014,216751
1630937430327,39126,217978,216753
1630937430337,39092,217960,216777
1630937430347,39057,217937,216793
1630937430357,39049,217941,216768
1630937430367,39028,217960,216817
1630937430377,39014,218000,216866
1630937430387,39001,218015,216898
1630937430397,38999,218072,216981
1630937430407,38987,218084,217018
1630937430417,38985,218097,217041
1630937430427,38976,218121,217040
1630937430437,38974,218147,217064
1630937430447,38953,218147,217075
1630937430457,38945,218131,217094
1630937430467,38936,218143,217128
1630937430477,38931,218163,217153
1630937430487,38919,218177,217157
1630937430497,38900,218131,217211
1630937430507,38882,218158,217185
1630937430517,38875,218176,217176
1630937430527,38863,218177,217193
1630937430537,38845,218137,217160
1630937430547,38840,218143,217188
1630937430557,38826,218146,217186
1630937430567,38816,218139,217204
1630937430577,38797,218148,217212
1630937430587,38784,218157,217197
1630937430597,38788,218171,217201
1630937430607,38777,218151,217224
1630937430617,38770,218176,217246
1630937430627,38764,218222,217260
1630937430637,38761,218202,217275
1630937430647,38747,218254,217262
1630937430657,38746,218229,217270
1630937430667,38745,218256,217297
1630937430677,38760,218277,217303
1630937430687,38747,218281,217314
1630937430697,38742,218308,217363
1630937430707,38745,218314,217322
1630937430717,38739,218331,217327
1630937430727,38749,218340,217319
1630937430737,38745,218323,217351
1630937430747,38744,218359,217357
1630937430757,38744,218379,217344
1630937430767,38752,218404,217380
1630937430777,38746,218400,217411
1630937430787,38751,218434,217409
1630937430797,38754,218434,217400
1630937430807,38760,218460,217423
1630937430817,38758,218476,217420
1630937430827,38759,218516,217449
1630937430837,38768,218539,217443
1630937430847,38774,218512,217452
1630937430857,38770,218533,217451
1630937430867,38776,218555,217477
1630937430877,38785,218585,217458
1630937430887,38781,218604,217472
1630937430897,38782,218593,217506
1630937430907,38796,218578,217488
1630937430917,38790,218646,217503
1630937430927,38802,218651,217476
1630937430937,38808,218694,217536
1630937430947,38814,218707,217572
1630937430957,38810,218674,217539
1630937430967,38793,218617,217473
1630937430977,38767,218508,217396
1630937430987,38747,218450,217282
1630937430997,38672,218324,217173
1630937431007,38633,218194,217118
1630937431017,38578,218106,217022
1630937431027,38531,218061,217023
1630937431037,38491,218024,217016
1630937431047,38462,218016,217007
1630937431057,38430,217998,217028
1630937431067,38400,217945,217019
1630937431077,38366,217934,217039
1630937431087,38340,217923,217026
1630937431097,38320,217900,217055
1630937431107,38295,217868,217063
1630937431117,38278,217885,217079
1630937431127,38262,217847,217108
1630937431137,38230,217851,217103
1630937431147,38194,217787,217120
1630937431157,38178,217785,217117
1630937431167,38161,217789,217124
1630937431177,38130,217770,217161
1630937431187,38114,217778,217161
1630937431197,38089,217730,217189
1630937431207,38074,217748,217205
1630937431217,38068,217752,217238
1630937431227,38076,217828,217302
1630937431237,38075,217840,217359
1630937431247,38069,217849,217357
1630937431257,38062,217850,217368
1630937431267,38051,217851,217360
1630937431277,38044,217812,217385
1630937431287,38045,217829,217373
1630937431297,38025,217831,217373
1630937431307,38018,217829,217374
1630937431317,38020,217807,217409
1630937431327,38001,217833,217421
1630937431337,37996,217841,217455
1630937431347,38003,217843,217445
1630937431357,38000,217857,217464
1630937431367,38001,217833,217485
1630937431377,38007,217891,217496
1630937431387,38005,217906,217509
1630937431397,38016,217885,217548
1630937431407,38015,217904,217577
1630937431417,38020,217955,217613
1630937431427,38022,217985,217634
1630937431437,38029,217997,217664
1630937431447,38034,218074,217684
1630937431457,38043,218067,217724
1630937431467,38056,218095,217795
1630937431477,38061,218101,217799
1630937431487,38075,218159,217828
1630937431497,38068,218125,217845
1630937431507,38093,218211,217871
1630937431517,38099,218227,217921
1630937431527,38101,218273,217974
1630937431537,38121,218302,217996
1630937431547,38132,218332,218027
1630937431557,38141,218346,218063
1630937431567,38152,218355,218098
1630937431577,38179,218436,218135
1630937431587,38187,218464,218172
1630937431597,38202,218535,218196
1630937431607,38219,218546,218263
1630937431617,38232,218587,218298
1630937431627,38245,218630,218360
1630937431637,38270,218678,218401
1630937431647,38287,218707,218453
1630937431657,38306,218746,218463
1630937431667,38313,218763,218475
1630937431677,38322,218819,218514
1630937431687,38333,218870,218557
1630937431697,38348,218880,218571
1630937431707,38359,218903,218626
1630937431717,38367,218949,218636
1630937431727,38372,218984,218641
1630937431737,38383,219000,218693
1630937431747,38409,219061,218759
1630937431757,38422,219104,218798
1630937431767,38431,219145,218836
1630937431777,38457,219159,218860
1630937431787,38450,219180,218871
1630937431797,38451,219189,218842
1630937431807,38452,219085,218751
1630937431817,38422,219014,218672
1630937431827,38379,218894,218564
1630937431837,38334,218773,218474
1630937431847,38290,218687,218426
1630937431857,38248,218573,218390
1630937431867,38215,218531,218390
1630937431877,38192,218566,218367
1630937431887,38165,218503,218370
1630937431897,38150,218452,218361
1630937431907,38122,218432,218354
1630937431917,38108,218379,218329
1630937431927,38092,218339,218301
1630937431937,38071,218333,218272
1630937431947,38062,218299,218257
1630937431957,38037,218241,218245
1630937431967,38023,218219,218224
1630937431977,38017,218180,218209
1630937431987,38004,218153,218173
1630937431997,37985,218141,218189
1630937432007,37982,218129,218199
1630937432017,37966,218106,218204
1630937432027,37974,218128,218214
1630937432037,37973,218142,218254
1630937432047,37979,218180,218330
1630937432057,37998,218210,218326
1630937432067,38003,218217,218352
1630937432077,38009,218220,218336
1630937432087,38017,218234,218402
1630937432097,38022,218237,218369
1630937432107,38025,218217,218373
1630937432117,38025,218238,218394
1630937432127,38036,218229,218411
1630937432137,38036,218227,218395
1630937432147,38038,218290,218430
1630937432157,38043,218240,218429
1630937432167,38050,218280,218457
1630937432177,38064,218314,218466
1630937432187,38070,218327,218455
1630937432197,38081,218320,218502
1630937432207,38089,218349,218526
1630937432217,38113,218384,218556
1630937432227,38122,218425,218586
1630937432237,38135,218427,218590
1630937432247,38144,218471,218620
1630937432257,38164,218502,218638
1630937432267,38180,218528,218668
1630937432277,38193,218553,218717
1630937432287,38212,218604,218723
1630937432297,38220,218600,218742
1630937432307,38249,218629,218780
1630937432317,38260,218690,218785
1630937432327,38274,218695,218809
1630937432337,38289,218714,218814
1630937432347,38304,218751,218864
1630937432357,38316,218783,218866
1630937432367,38330,218829,218875
1630937432377,38352,218856,218932
1630937432387,38364,218903,218933
1630937432397,38391,218920,218988
1630937432407,38410,218955,219030
1630937432417,38435,219011,219062
1630937432427,38444,219046,219086
1630937432437,38474,219066,219096
1630937432447,38491,219098,219145
1630937432457,38506,219141,219140
1630937432467,38518,219157,219169
1630937432477,38533,219196,219214
1630937432487,38552,219249,219224
1630937432497,38571,219293,219234
1630937432507,38594,219293,219261
1630937432517,38606,219304,219234
1630937432527,38624,219339,219290
1630937432537,38650,219387,219301
1630937432547,38662,219429,219315
1630937432557,38684,219431,219335
1630937432567,38702,219428,219355
1630937432577,38712,219412,219334
1630937432587,38711,219372,219245
1630937432597,38710,219304,219156
1630937432607,38676,219178,219080
1630937432617,38631,219091,218986
1630937432627,38614,219010,218950
1630937432637,38579,218940,218886
1630937432647,38551,218855,218843
1630937432657,38537,218822,218852
1630937432667,38528,218842,218880
1630937432677,38507,218825,218865
1630937432687,38515,218800,218874
1630937432697,38506,218805,218894
1630937432707,38505,218803,218912
1630937432717,38503,218784,218912
1630937432727,38500,218799,218937
1630937432737,38498,218801,218971
1630937432747,38497,218809,218997
1630937432757,38480,218814,218988
1630937432767,38481,218801,218998
1630937432777,38487,218815,219037
1630937432787,38487,218843,219054
1630937432797,38494,218899,219092
1630937432807,38498,218898,219158
1630937432817,38508,218898,219183
1630937432827,38520,218970,219247
1630937432837,38530,219012,219287
1630937432847,38552,219039,219344
1630937432857,38574,219131,219398
1630937432867,38589,219137,219427
1630937432877,38603,219147,219441
1630937432887,38612,219185,219491
1630937432897,38625,219201,219445
1630937432907,38629,219196,219472
1630937432917,38652,219197,219467
1630937432927,38653,219228,219491
1630937432937,38669,219230,219499
1630937432947,38684,219236,219477
1630937432957,38687,219260,219529
1630937432967,38701,219243,219555
1630937432977,38712,219274,219533
1630937432987,38726,219282,219579
1630937432997,38741,219348,219611
1630937433007,38768,219385,219651
1630937433017,38776,219419,219673
1630937433027,38801,219444,219699
1630937433037,38813,219517,219695
1630937433047,38830,219526,219749
1630937433057,38857,219546,219792
1630937433067,38881,219602,219845
1630937433077,38899,219634,219855
1630937433087,38909,219710,219891
1630937433097,38926,219737,219916
1630937433107,38958,219752,219941
1630937433117,38980,219840,219958
1630937433127,38996,219827,220000
1630937433137,39038,219855,220033
1630937433147,39045,219885,220038
1630937433157,39042,219901,220043
1630937433167,39065,219962,220060
1630937433177,39086,220017,220119
1630937433187,39108,220050,220089
1630937433197,39128,220064,220097
1630937433207,39145,220106,220128
1630937433217,39167,220153,220195
1630937433227,39193,220187,220188
1630937433237,39205,220199,220209
1630937433247,39241,220219,220220
1630937433257,39256,220282,220229
1630937433267,39271,220284,220284
1630937433277,39285,220308,220271
1630937433287,39305,220331,220302
1630937433297,39324,220366,220293
1630937433307,39340,220418,220310
1630937433317,39360,220460,220349
1630937433327,39381,220458,220368
1630937433337,39406,220501,220358
1630937433347,39426,220541,220394
1630937433357,39453,220589,220417
1630937433367,39467,220600,220419
1630937433377,39496,220657,220472
1630937433387,39512,220712,220501
1630937433397,39529,220717,220505
1630937433407,39553,220744,220530
1630937433417,39564,220806,220533
1630937433427,39590,220758,220506
1630937433437,39578,220720,220433
1630937433447,39586,220589,220310
1630937433457,39554,220492,220199
1630937433467,39532,220380,220091
1630937433477,39500,220294,219961
1630937433487,39480,220190,219903
1630937433497,39467,220154,219852
1630937433507,39455,220118,219836
1630937433517,39449,220100,219820
1630937433527,39457,220064,219834
1630937433537,39445,220030,219825
1630937433547,39446,220011,219824
1630937433557,39450,220000,219785
1630937433567,39453,220007,219826
1630937433577,39440,220050,219812
1630937433587,39435,220031,219830
1630937433597,39441,219973,219821
1630937433607,39449,219988,219832
1630937433617,39448,219987,219820
1630937433627,39450,219965,219822
1630937433637,39444,219942,219846
1630937433647,39455,219944,219824
1630937433657,39458,219960,219840
1630937433667,39456,219939,219817
1630937433677,39474,219976,219843
1630937433687,39482,219984,219885
1630937433697,39495,220051,219951
1630937433707,39510,220096,219979
1630937433717,39528,220092,219974
1630937433727,39550,220152,219985
1630937433737,39558,220151,219986
1630937433747,39559,220155,220043
1630937433757,39574,220146,220014
1630937433767,39576,220137,219992
1630937433777,39586,220137,220022
1630937433787,39599,220192,220037
1630937433797,39604,220171,220063
1630937433807,39615,220189,220046
1630937433817,39625,220209,220065
1630937433827,39630,220211,220053
1630937433837,39651,220252,220071
1630937433847,39665,220256,220101
1630937433857,39677,220272,220101
1630937433867,39690,220315,220083
1630937433877,39703,220297,220119
1630937433887,39725,220366,220139
1630937433897,39737,220302,220147
1630937433907,39742,220382,220134
1630937433917,39756,220428,220174
1630937433927,39776,220454,220194
1630937433937,39792,220470,220223
1630937433947,39791,220512,220235
1630937433957,39815,220511,220238
1630937433967,39830,220521,220290
1630937433977,39850,220552,220298
1630937433987,39869,220609,220299
1630937433997,39885,220650,220319
1630937434007,39892,220686,220339
1630937434017,39905,220684,220328
1630937434027,39922,220729,220337
1630937434037,39942,220745,220346
1630937434047,39958,220751,220391
1630937434057,39979,220775,220407
1630937434067,39981,220820,220406
1630937434077,40002,220823,220438
1630937434087,40016,220863,220457
1630937434097,40033,220884,220479
1630937434107,40050,220927,220491
1630937434117,40070,220959,220505
1630937434127,40076,220986,220533
1630937434137,40102,221011,220542
1630937434147,40116,221051,220557
1630937434157,40135,221095,220610
1630937434167,40149,221094,220612
1630937434177,40166,221145,220623
1630937434187,40183,221206,220659
1630937434197,40205,221190,220671
1630937434207,40213,221252,220678
1630937434217,40243,221292,220710
1630937434227,40257,221284,220729
1630937434237,40269,221301,220738
1630937434247,40287,221346,220724
1630937434257,40286,221368,220759
1630937434267,40311,221403,220749
1630937434277,40317,221418,220803
1630937434287,40346,221431,220830
1630937434297,40356,221460,220826
1630937434307,40369,221500,220859
1630937434317,40388,221513,220863
1630937434327,40411,221551,220918
1630937434337,40429,221616,220890
1630937434347,40445,221632,220921
1630937434357,40446,221636,220941
1630937434367,40450,221622,220886
1630937434377,40442,221518,220808
1630937434387,40433,221463,220707
1630937434397,40405,221326,220616
1630937434407,40380,221236,220509
1630937434417,40347,221145,220431
1630937434427,40322,221084,220381
1630937434437,40312,221032,220324
1630937434447,40296,221006,220362
1630937434457,40285,221023,220367
1630937434467,40270,221002,220372
1630937434477,40266,220985,220374
1630937434487,40258,220978,220339
1630937434497,40256,220977,220385
1630937434507,40248,220926,220352
1630937434517,40244,220933,220337
1630937434527,40236,220912,220354
1630937434537,40226,220926,220345
1630937434547,40219,220894,220367
1630937434557,40208,220944,220337
1630937434567,40194,220921,220350
1630937434577,40196,220874,220393
1630937434587,40186,220866,220378
1630937434597,40182,220878,220369
1630937434607,40176,220887,220411
1630937434617,40176,220893,220443
1630937434627,40189,220942,220483
1630937434637,40191,220993,220490
1630937434647,40198,220976,220522
1630937434657,40200,220981,220496
1630937434667,40198,221020,220527
1630937434677,40205,220999,220531
1630937434687,40205,221006,220544
1630937434697,40194,220995,220539
1630937434707,40196,221016,220511
1630937434717,40204,221074,220589
1630937434727,40203,221022,220560
1630937434737,40206,221029,220560
1630937434747,40208,221086,220586
1630937434757,40211,221053,220602
1630937434767,40210,221068,220604
1630937434777,40210,221053,220637
1630937434787,40218,221120,220662
1630937434797,40223,221110,220630
1630937434807,40238,221178,220665
1630937434817,40236,221162,220714
1630937434827,40235,221197,220723
1630937434837,40245,221216,220746
1630937434847,40251,221222,220753
1630937434857,40268,221277,220768
1630937434867,40281,221295,220781
1630937434877,40278,221320,220782
1630937434887,40289,221300,220857
1630937434897,40292,221351,220853
1630937434907,40294,221426,220851
1630937434917,40299,221391,220869
1630937434927,40316,221407,220883
1630937434937,40320,221442,220907
1630937434947,40322,221487,220901
1630937434957,40330,221463,220901
1630937434967,40335,221495,220935
1630937434977,40345,221493,220929
1630937434987,40354,221503,220961
1630937434997,40364,221550,220935
1630937435007,40367,221565,220948
1630937435017,40374,221581,220966
1630937435027,40378,221585,220958
1630937435037,40379,221603,221003
1630937435047,40397,221627,220973
1630937435057,40399,221621,221017
1630937435067,40416,221653,220998
1630937435077,40419,221661,221026
1630937435087,40427,221718,221052
1630937435097,40441,221748,221050
1630937435107,40441,221766,221058
1630937435117,40456,221791,221075
1630937435127,40473,221804,221123
1630937435137,40499,221868,221216
1630937435147,40511,221915,221335
1630937435157,40514,221961,221351
1630937435167,40531,221981,221373
1630937435177,40529,222022,221377
1630937435187,40553,222050,221410
1630937435197,40560,222054,221387
1630937435207,40571,222096,221405
1630937435217,40572,222075,221436
1630937435227,40588,222148,221430
1630937435237,40594,222125,221446
1630937435247,40593,222134,221455
1630937435257,40608,222161,221452
1630937435267,40617,222160,221447
1630937435277,40628,222191,221452
1630937435287,40624,222169,221443
1630937435297,40630,222212,221463
1630937435307,40636,222208,221446
1630937435317,40639,222236,221413
1630937435327,40628,222178,221412
1630937435337,40616,222118,221279
1630937435347,40570,221968,221153
1630937435357,40543,221810,220994
1630937435367,40492,221686,220878
1630937435377,40470,221570,220776
1630937435387,40412,221501,220740
1630937435397,40381,221401,220708
1630937435407,40347,221392,220669
1630937435417,40319,221365,220626
1630937435427,40284,221305,220650
1630937435437,40262,221258,220622
1630937435447,40226,221250,220593
1630937435457,40206,221195,220588
1630937435467,40180,221160,220574
1630937435477,40154,221126,220528
1630937435487,40118,221115,220523
1630937435497,40096,221098,220531
1630937435507,40063,221066,220486
1630937435517,40034,221027,220456
1630937435527,40015,220966,220461
1630937435537,39975,220956,220419
1630937435547,39946,220934,220408
1630937435557,39912,220898,220423
1630937435567,39887,220886,220438
1630937435577,39859,220899,220428
1630937435587,39849,220911,220486
1630937435597,39836,220916,220460
1630937435607,39821,220895,220469
1630937435617,39809,220906,220458
1630937435627,39793,220883,220481
1630937435637,39767,220847,220423
1630937435647,39745,220829,220426
1630937435657,39721,220792,220379
1630937435667,39705,220798,220394
1630937435677,39687,220797,220373
1630937435687,39668,220797,220390
1630937435697,39645,220756,220372
1630937435707,39636,220734,220376
1630937435717,39610,220729,220365
1630937435727,39595,220752,220357
1630937435737,39585,220712,220352
1630937435747,39566,220734,220375
1630937435757,39561,220755,220384
1630937435767,39540,220742,220402
1630937435777,39534,220706,220398
1630937435787,39522,220762,220392
1630937435797,39509,220748,220426
1630937435807,39504,220785,220429
1630937435817,39501,220788,220455
1630937435827,39492,220764,220451
1630937435837,39486,220837,220467
1630937435847,39490,220829,220492
1630937435857,39484,220828,220482
1630937435867,39484,220865,220507
1630937435877,39478,220870,220517
1630937435887,39475,220854,220546
1630937435897,39469,220891,220528
1630937435907,39465,220933,220556
1630937435917,39464,220893,220534
1630937435927,39466,220906,220576
1630937435937,39463,220922,220573
1630937435947,39451,220924,220594
1630937435957,39452,220952,220586
1630937435967,39445,220962,220582
1630937435977,39450,220937,220610
1630937435987,39450,220984,220612
1630937435997,39445,221000,220616
1630937436007,39447,221011,220630
1630937436017,39455,221034,220639
1630937436027,39441,221055,220674
1630937436037,39450,221092,220694
1630937436047,39455,221094,220715
1630937436057,39457,221093,220719
1630937436067,39460,221139,220702
1630937436077,39461,221157,220716
1630937436087,39452,221163,220750
1630937436097,39456,221185,220715
1630937436107,39458,221171,220739
1630937436117,39464,221204,220751
1630937436127,39470,221228,220784
1630937436137,39471,221231,220775
1630937436147,39467,221260,220812
1630937436157,39483,221262,220788
1630937436167,39477,221262,220799
1630937436177,39487,221299,220810
1630937436187,39484,221314,220852
1630937436197,39493,221359,220871
1630937436207,39495,221382,220851
1630937436217,39502,221358,220878
1630937436227,39496,221349,220831
1630937436237,39473,221324,220789
1630937436247,39449,221169,220678
1630937436257,39405,221031,220538
1630937436267,39347,220948,220443
1630937436277,39283,220783,220317
1630937436287,39221,220689,220243
1630937436297,39166,220577,220160
1630937436307,39112,220520,220153
1630937436317,39059,220442,220136
1630937436327,39006,220412,220120
1630937436337,38971,220344,220096
1630937436347,38921,220295,220070
1630937436357,38892,220265,220094
1630937436367,38858,220235,220051
1630937436377,38814,220178,220078
1630937436387,38787,220175,220048
1630937436397,38754,220119,220054
1630937436407,38718,220101,220027
1630937436417,38681,220053,220018
1630937436427,38657,220009,220030
1630937436437,38620,219977,220014
1630937436447,38592,219926,219992
1630937436457,38558,219901,219989
1630937436467,38530,219874,219988
1630937436477,38507,219846,219998
1630937436487,38494,219847,220008
1630937436497,38478,219913,220103
1630937436507,38477,219907,220097
1630937436517,38474,219900,220124
1630937436527,38463,219915,220120
1630937436537,38447,219904,220139
1630937436547,38438,219904,220139
1630937436557,38424,219921,220124
1630937436567,38407,219841,220122
1630937436577,38397,219846,220119
1630937436587,38391,219884,220157
1630937436597,38388,219818,220130
1630937436607,38378,219878,220148
1630937436617,38365,219858,220184
1630937436627,38350,219833,220190
1630937436637,38351,219839,220186
1630937436647,38360,219842,220205
1630937436657,38334,219867,220195
1630937436667,38335,219861,220251
1630937436677,38346,219861,220253
1630937436687,38342,219915,220254
1630937436697,38334,219886,220285
1630937436707,38339,219868,220300
1630937436717,38347,219927,220313
1630937436727,38361,219939,220353
1630937436737,38357,219959,220365
1630937436747,38355,220001,220356
1630937436757,38365,220023,220385
1630937436767,38371,219986,220406
1630937436777,38378,220061,220400
1630937436787,38383,220041,220434
1630937436797,38386,220085,220444
1630937436807,38386,220027,220478
1630937436817,38396,220077,220471
1630937436827,38412,220120,220522
1630937436837,38405,220095,220517
1630937436847,38424,220151,220529
1630937436857,38423,220140,220536
1630937436867,38434,220178,220550
1630937436877,38442,220171,220586
1630937436887,38451,220207,220608
1630937436897,38461,220222,220610
1630937436907,38472,220245,220634
1630937436917,38484,220288,220637
1630937436927,38494,220292,220645
1630937436937,38496,220293,220662
1630937436947,38510,220321,220694
1630937436957,38521,220352,220686
1630937436967,38528,220392,220700
1630937436977,38554,220396,220719
1630937436987,38561,220422,220767
1630937436997,38582,220447,220795
1630937437007,38581,220479,220791
1630937437017,38596,220498,220838
1630937437027,38613,220538,220856
1630937437037,38626,220553,220855
1630937437047,38635,220616,220896
1630937437057,38647,220585,220888
1630937437067,38654,220623,220896
1630937437077,38665,220618,220927
1630937437087,38683,220679,220949
1630937437097,38701,220671,220976
1630937437107,38711,220722,221016
1630937437117,38725,220764,221009
1630937437127,38746,220758,221032
1630937437137,38758,220816,221069
1630937437147,38772,220856,221091
1630937437157,38788,220858,221063
1630937437167,38806,220888,221101
1630937437177,38826,220927,221133
1630937437187,38818,220919,221111
1630937437197,38816,220859,221071
1630937437207,38798,220792,220986
1630937437217,38772,220662,220854
1630937437227,38732,220518,220731
1630937437237,38683,220388,220647
1630937437247,38631,220257,220576
1630937437257,38575,220170,220470
1630937437267,38540,220087,220443
1630937437277,38501,220035,220425
1630937437287,38468,219998,220403
1630937437297,38447,219942,220374
1630937437307,38413,219938,220390
1630937437317,38410,219886,220371
1630937437327,38386,219850,220397
1630937437337,38369,219809,220373
1630937437347,38346,219785,220380
1630937437357,38332,219748,220359
1630937437367,38317,219779,220368
1630937437377,38301,219709,220365
1630937437387,38286,219700,220327
1630937437397,38270,219635,220366
1630937437407,38265,219641,220339
1630937437417,38253,219632,220310
1630937437427,38243,219599,220304
1630937437437,38234,219559,220323
1630937437447,38239,219575,220340
1630937437457,38242,219606,220401
1630937437467,38259,219615,220404
1630937437477,38262,219649,220438
1630937437487,38266,219659,220464
1630937437497,38265,219660,220480
1630937437507,38272,219678,220458
1630937437517,38276,219666,220471
1630937437527,38278,219664,220468
1630937437537,38287,219634,220466
1630937437547,38277,219642,220478
1630937437557,38285,219653,220466
1630937437567,38290,219653,220520
1630937437577,38297,219668,220493
1630937437587,38295,219661,220493
1630937437597,38315,219656,220518
1630937437607,38321,219687,220508
1630937437617,38324,219698,220521
1630937437627,38323,219705,220536
1630937437637,38338,219720,220555
1630937437647,38354,219720,220588
1630937437657,38373,219760,220583
1630937437667,38380,219737,220599
1630937437677,38396,219772,220606
1630937437687,38407,219800,220669
1630937437697,38420,219834,220656
1630937437707,38435,219838,220692
1630937437717,38449,219862,220672
1630937437727,38463,219892,220696
1630937437737,38488,219933,220729
1630937437747,38508,219968,220762
1630937437757,38521,219950,220764
1630937437767,38538,220001,220764
1630937437777,38558,220002,220797
1630937437787,38583,220060,220789
1630937437797,38592,220054,220838
1630937437807,38597,220063,220804
1630937437817,38622,220089,220841
1630937437827,38623,220115,220831
1630937437837,38647,220131,220851
1630937437847,38652,220138,220865
1630937437857,38674,220202,220853
1630937437867,38693,220209,220864
1630937437877,38704,220189,220901
1630937437887,38731,220224,220884
1630937437897,38748,220292,220890
1630937437907,38760,220293,220928
1630937437917,38780,220319,220922
1630937437927,38813,220370,220945
1630937437937,38821,220360,220955
1630937437947,38839,220421,220976
1630937437957,38850,220449,220974
1630937437967,38874,220436,221027
1630937437977,38884,220465,221017
1630937437987,38901,220515,221017
1630937437997,38929,220527,221044
1630937438007,38955,220555,221081
1630937438017,38974,220625,221069
1630937438027,38985,220622,221104
1630937438037,39012,220662,221124
1630937438047,39030,220705,221136
1630937438057,39054,220697,221163
1630937438067,39069,220771,221160
1630937438077,39087,220775,221185
1630937438087,39116,220794,221183
1630937438097,39132,220858,221229
1630937438107,39141,220898,221233
1630937438117,39166,220942,221228
1630937438127,39191,220913,221290
1630937438137,39222,220960,221298
1630937438147,39233,220965,221298
1630937438157,39251,221021,221298
1630937438167,39269,221078,221300
1630937438177,39284,221065,221307
1630937438187,39289,220975,221239
1630937438197,39279,220914,221138
1630937438207,39264,220783,221025
1630937438217,39225,220689,220905
1630937438227,39195,220516,220807
1630937438237,39158,220444,220713
1630937438247,39145,220378,220674
1630937438257,39119,220359,220677
1630937438267,39099,220297,220667
1630937438277,39093,220269,220615
1630937438287,39097,220248,220592
1630937438297,39084,220205,220609
1630937438307,39060,220194,220608
1630937438317,39072,220188,220620
1630937438327,39078,220167,220588
1630937438337,39073,220178,220620
1630937438347,39062,220178,220599
1630937438357,39059,220160,220616
1630937438367,39057,220153,220596
1630937438377,39062,220133,220606
1630937438387,39060,220109,220570
1630937438397,39060,220090,220564
1630937438407,39056,220098,220559
1630937438417,39060,220063,220578
1630937438427,39057,220083,220560
1630937438437,39075,220100,220588
1630937438447,39076,220120,220639
1630937438457,39095,220157,220670
1630937438467,39112,220209,220712
1630937438477,39119,220208,220720
1630937438487,39135,220238,220734
1630937438497,39142,220227,220740
1630937438507,39152,220201,220720
1630937438517,39156,220211,220705
1630937438527,39162,220224,220726
1630937438537,39173,220259,220734
1630937438547,39194,220242,220725
1630937438557,39191,220278,220738
1630937438567,39203,220261,220754
1630937438577,39212,220293,220751
1630937438587,39227,220350,220787
1630937438597,39247,220337,220818
1630937438607,39264,220357,220836
1630937438617,39258,220353,220825
1630937438627,39293,220386,220839
1630937438637,39299,220413,220855
1630937438647,39310,220446,220877
1630937438657,39315,220437,220897
1630937438667,39334,220459,220913
1630937438677,39348,220523,220932
1630937438687,39372,220555,220941
1630937438697,39392,220569,220973
1630937438707,39403,220589,220989
1630937438717,39429,220635,221015
1630937438727,39449,220675,221010
1630937438737,39457,220673,221055
1630937438747,39470,220754,221088
1630937438757,39488,220774,221110
1630937438767,39498,220783,221087
1630937438777,39527,220819,221137
1630937438787,39554,220849,221136
1630937438797,39562,220863,221158
1630937438807,39581,220910,221185
1630937438817,39594,220919,221204
1630937438827,39611,220938,221212
1630937438837,39626,220979,221225
1630937438847,39645,220968,221226
1630937438857,39665,221015,221234
1630937438867,39688,221097,221258
1630937438877,39703,221102,221287
1630937438887,39731,221166,221304
1630937438897,39742,221162,221319
1630937438907,39757,221183,221345
1630937438917,39785,221208,221347
1630937438927,39799,221237,221401
1630937438937,39819,221244,221389
1630937438947,39837,221338,221441
1630937438957,39849,221370,221445
1630937438967,39874,221353,221438
1630937438977,39887,221370,221481
1630937438987,39904,221426,221482
1630937438997,39918,221457,221487
1630937439007,39949,221476,221531
1630937439017,39960,221527,221559
1630937439027,39982,221590,221565
1630937439037,39999,221596,221595
1630937439047,40026,221600,221566
1630937439057,40035,221647,221595
1630937439067,40067,221670,221631
1630937439077,40080,221696,221636
1630937439087,40109,221742,221641
1630937439097,40113,221765,221696
1630937439107,40122,221752,221669
1630937439117,40158,221815,221679
1630937439127,40179,221850,221742
1630937439137,40193,221871,221752
1630937439147,40203,221933,221765
1630937439157,40225,221951,221785
1630937439167,40233,221937,221790
1630937439177,40242,221912,221735
1630937439187,40241,221863,221642
1630937439197,40222,221749,221514
1630937439207,40195,221623,221418
1630937439217,40162,221522,221342
1630937439227,40147,221412,221210
1630937439237,40123,221361,221190
1630937439247,40104,221349,221194
1630937439257,40108,221291,221175
1630937439267,40098,221296,221142
1630937439277,40105,221283,221121
1630937439287,40093,221232,221151
1630937439297,40083,221271,221132
1630937439307,40082,221240,221124
1630937439317,40073,221235,221132
1630937439327,40071,221227,221135
1630937439337,40070,221227,221135
1630937439347,40079,221213,221114
1630937439357,40066,221178,221124
1630937439367,40066,221181,221083
1630937439377,40060,221190,221089
1630937439387,40059,221126,221083
1630937439397,40046,221147,221063
1630937439407,40055,221162,221046
1630937439417,40054,221135,221084
1630937439427,40057,221134,221109
1630937439437,40066,221183,221163
1630937439447,40070,221228,221155
1630937439457,40084,221202,221143
1630937439467,40089,221213,221165
1630937439477,40096,221230,221154
1630937439487,40092,221204,221175
1630937439497,40101,221212,221152
1630937439507,40099,221194,221135
1630937439517,40103,221226,221158
1630937439527,40114,221222,221170
1630937439537,40121,221234,221165
1630937439547,40113,221264,221201
1630937439557,40125,221280,221143
1630937439567,40138,221260,221177
1630937439577,40125,221212,221183
1630937439587,40135,221310,221203
1630937439597,40144,221306,221213
1630937439607,40161,221321,221249
1630937439617,40162,221305,221287
1630937439627,40173,221373,221277
1630937439637,40176,221371,221320
1630937439647,40197,221426,221335
1630937439657,40204,221468,221385
1630937439667,40216,221488,221390
1630937439677,40230,221528,221428
1630937439687,40246,221583,221466
1630937439697,40260,221564,221480
1630937439707,40265,221651,221497
1630937439717,40281,221664,221513
1630937439727,40290,221697,221555
1630937439737,40304,221730,221583
1630937439747,40320,221731,221585
1630937439757,40335,221744,221591
1630937439767,40341,221801,221600
1630937439777,40351,221757,221623
1630937439787,40363,221797,221602
1630937439797,40368,221818,221644
1630937439807,40378,221843,221631
1630937439817,40393,221866,221640
1630937439827,40401,221914,221656
1630937439837,40411,221906,221654
1630937439847,40427,221921,221686
1630937439857,40443,221933,221703
1630937439867,40449,221955,221712
1630937439877,40459,222000,221701
1630937439887,40467,221998,221731
1630937439897,40470,222020,221731
1630937439907,40495,222030,221748
1630937439917,40493,222060,221760
1630937439927,40513,222081,221771
1630937439937,40521,222079,221779
1630937439947,40535,222106,221786
1630937439957,40547,222146,221788
1630937439967,40556,222161,221804
1630937439977,40564,222190,221793
1630937439987,40571,222217,221823
1630937439997,40593,222218,221829
1630937440007,40602,222233,221837
1630937440017,40610,222252,221851
1630937440027,40621,222307,221875
1630937440037,40630,222277,221879
1630937440047,40640,222321,221903
1630937440057,40645,222353,221902
1630937440067,40663,222382,221918
1630937440077,40650,222267,221825
1630937440087,40589,222210,221624
1630937440097,40544,222037,221463
1630937440107,40528,221931,221352
1630937440117,40498,221757,221161
1630937440127,40464,221627,221004
1630937440137,40439,221523,220906
1630937440147,40428,221516,220883
1630937440157,40414,221497,220882
1630937440167,40421,221479,220946
1630937440177,40417,221523,221043
1630937440187,40412,221571,221076
1630937440197,40411,221537,221116
1630937440207,40392,221561,221137
1630937440217,40371,221520,221114
1630937440227,40378,221504,221131
1630937440237,40353,221465,221113
1630937440247,40334,221462,221119
1630937440257,40313,221437,221114
1630937440267,40283,221408,221105
1630937440277,40257,221378,221080
1630937440287,40233,221374,221078
1630937440297,40222,221304,221072
1630937440307,40201,221303,221075
1630937440317,40175,221252,221061
1630937440327,40159,221237,221018
1630937440337,40128,221237,221021
1630937440347,40110,221213,221003
1630937440357,40097,221188,221025
1630937440367,40084,221207,221050
1630937440377,40078,221208,221079
1630937440387,40068,221229,221091
1630937440397,40058,221232,221125
1630937440407,40046,221232,221110
1630937440417,40039,221215,221109
1630937440427,40018,221222,221093
1630937440437,40002,221180,221048
1630937440447,39989,221170,221023
1630937440457,39976,221149,221059
1630937440467,39961,221155,221070
1630937440477,39948,221175,221047
1630937440487,39935,221151,221047
1630937440497,39927,221151,221059
1630937440507,39918,221119,221035
1630937440517,39906,221115,221031
1630937440527,39902,221081,221041
1630937440537,39896,221134,221066
1630937440547,39897,221139,221042
1630937440557,39876,221118,221051
1630937440567,39883,221134,221050
1630937440577,39884,221142,221097
1630937440587,39870,221154,221105
1630937440597,39864,221186,221096
1630937440607,39859,221167,221112
1630937440617,39855,221164,221132
1630937440627,39854,221193,221138
1630937440637,39857,221212,221146
1630937440647,39854,221249,221141
1630937440657,39855,221268,221172
1630937440667,39858,221260,221185
1630937440677,39850,221253,221168
1630937440687,39849,221298,221195
1630937440697,39858,221273,221201
1630937440707,39843,221297,221177
1630937440717,39849,221296,221191
1630937440727,39860,221311,221169
1630937440737,39838,221292,221183
1630937440747,39840,221323,221171
1630937440757,39835,221300,221181
1630937440767,39838,221336,221215
1630937440777,39844,221335,221186
1630937440787,39842,221368,221200
1630937440797,39843,221344,221207
1630937440807,39842,221377,221189
1630937440817,39846,221361,221172
1630937440827,39847,221399,221199
1630937440837,39844,221395,221209
1630937440847,39851,221407,221235
1630937440857,39852,221422,221231
1630937440867,39845,221443,221240
1630937440877,39849,221435,221244
1630937440887,39866,221441,221218
1630937440897,39853,221486,221222
1630937440907,39852,221467,221239
1630937440917,39854,221457,221183
1630937440927,39855,221499,221212
1630937440937,39858,221497,221209
1630937440947,39862,221502,221190
1630937440957,39856,221497,221186
1630937440967,39864,221522,221203
1630937440977,39862,221545,221201
1630937440987,39868,221500,221192
1630937440997,39875,221529,221203
1630937441007,39867,221553,221204
1630937441017,39879,221568,221188
1630937441027,39880,221582,221200
1630937441037,39878,221531,221177
1630937441047,39882,221574,221179
1630937441057,39882,221585,221179
1630937441067,39876,221591,221133
1630937441077,39860,221522,221073
1630937441087,39835,221422,220992
1630937441097,39793,221280,220837
1630937441107,39739,221110,220715
1630937441117,39672,220985,220580
1630937441127,39608,220823,220448
1630937441137,39550,220721,220400
1630937441147,39491,220587,220325
1630937441157,39435,220581,220263
1630937441167,39381,220472,220256
1630937441177,39335,220381,220207
1630937441187,39300,220333,220167
1630937441197,39250,220288,220141
1630937441207,39200,220245,220138
1630937441217,39159,220192,220100
1630937441227,39123,220155,220094
1630937441237,39088,220095,220072
1630937441247,39054,220071,220042
1630937441257,39012,220024,220031
1630937441267,38973,219945,219994
1630937441277,38931,219936,219949
1630937441287,38895,219884,219941
1630937441297,38857,219785,219911
1630937441307,38818,219733,219870
1630937441317,38779,219748,219897
1630937441327,38752,219733,219889
1630937441337,38730,219662,219886
1630937441347,38722,219699,219933
1630937441357,38700,219680,219958
1630937441367,38687,219681,219934
1630937441377,38669,219702,219952
1630937441387,38656,219645,219966
1630937441397,38630,219659,219936
1630937441407,38604,219628,219928
1630937441417,38593,219622,219909
1630937441427,38571,219606,219903
1630937441437,38555,219559,219923
1630937441447,38539,219566,219926
1630937441457,38530,219537,219907
1630937441467,38517,219530,219903
1630937441477,38493,219533,219881
1630937441487,38490,219536,219935
1630937441497,38481,219508,219936
1630937441507,38483,219530,219947
1630937441517,38461,219509,219912
1630937441527,38451,219484,219959
1630937441537,38457,219518,219963
1630937441547,38445,219564,219949
1630937441557,38445,219541,219965
1630937441567,38439,219531,219990
1630937441577,38430,219548,219996
1630937441587,38432,219572,220022
1630937441597,38436,219547,220032
1630937441607,38436,219573,220021
1630937441617,38439,219596,220046
1630937441627,38440,219610,220063
1630937441637,38436,219634,220069
1630937441647,38445,219643,220098
1630937441657,38444,219651,220106
1630937441667,38443,219671,220120
1630937441677,38448,219687,220128
1630937441687,38462,219675,220145
1630937441697,38459,219738,220158
1630937441707,38459,219721,220156
1630937441717,38466,219710,220187
1630937441727,38468,219727,220202
1630937441737,38469,219741,220220
1630937441747,38479,219754,220249
1630937441757,38484,219817,220273
1630937441767,38487,219834,220253
1630937441777,38495,219834,220270
1630937441787,38500,219849,220265
1630937441797,38510,219866,220301
1630937441807,38518,219873,220304
1630937441817,38519,219881,220332
1630937441827,38525,219934,220330
1630937441837,38533,219889,220349
1630937441847,38541,219962,220353
1630937441857,38539,219949,220369
1630937441867,38555,219966,220369
1630937441877,38560,220011,220390
1630937441887,38563,219993,220414
1630937441897,38575,220012,220404
1630937441907,38585,220049,220428
1630937441917,38590,220064,220448
1630937441927,38603,220096,220462
1630937441937,38606,220076,220428
1630937441947,38624,220101,220449
1630937441957,38623,220126,220443
1630937441967,38637,220134,220488
1630937441977,38646,220169,220499
1630937441987,38663,220214,220500
1630937441997,38666,220184,220516
1630937442007,38684,220248,220533
1630937442017,38667,220228,220555
1630937442027,38684,220276,220567
1630937442037,38699,220276,220587
1630937442047,38717,220298,220579
1630937442057,38714,220266,220579
1630937442067,38710,220188,220516
1630937442077,38675,220082,220380
1630937442087,38642,219967,220268
1630937442097,38580,219862,220166
1630937442107,38520,219710,220052
1630937442117,38470,219562,219965
1630937442127,38413,219478,219942
1630937442137,38371,219420,219901
1630937442147,38327,219344,219852
1630937442157,38283,219301,219837
1630937442167,38266,219260,219823
1630937442177,38224,219186,219820
1630937442187,38192,219139,219808
1630937442197,38164,219135,219795
1630937442207,38141,219062,219777
1630937442217,38121,219038,219795
1630937442227,38101,219019,219799
1630937442237,38077,218966,219776
1630937442247,38051,218962,219728
1630937442257,38037,218901,219727
1630937442267,38007,218865,219727
1630937442277,37987,218821,219723
1630937442287,37963,218799,219700
1630937442297,37944,218739,219722
1630937442307,37929,218742,219715
1630937442317,37927,218758,219707
1630937442327,37923,218798,219776
1630937442337,37926,218794,219802
1630937442347,37926,218799,219806
1630937442357,37927,218789,219817
1630937442367,37937,218817,219846
1630937442377,37937,218813,219886
1630937442387,37939,218793,219870
1630937442397,37932,218791,219886
1630937442407,37919,218772,219894
1630937442417,37918,218776,219869
1630937442427,37927,218823,219861
1630937442437,37931,218787,219897
1630937442447,37928,218796,219937
1630937442457,37929,218790,219918
1630937442467,37928,218780,219939
1630937442477,37935,218817,219965
1630937442487,37933,218777,219956
1630937442497,37953,218836,219995
1630937442507,37947,218828,220016
1630937442517,37974,218866,220033
1630937442527,37965,218867,220037
1630937442537,37980,218882,220066
1630937442547,37993,218916,220091
1630937442557,38004,218923,220097
1630937442567,38013,218934,220129
1630937442577,38031,218986,220151
1630937442587,38050,219013,220153
1630937442597,38056,219051,220210
1630937442607,38071,219053,220192
1630937442617,38077,219058,220264
1630937442627,38098,219075,220269
1630937442637,38119,219131,220277
1630937442647,38131,219159,220310
1630937442657,38143,219174,220318
1630937442667,38158,219204,220341
1630937442677,38165,219212,220344
1630937442687,38192,219245,220351
1630937442697,38199,219271,220407
1630937442707,38214,219264,220417
1630937442717,38239,219297,220430
1630937442727,38249,219341,220429
1630937442737,38271,219315,220476
1630937442747,38285,219420,220484
1630937442757,38300,219376,220509
1630937442767,38319,219420,220518
1630937442777,38333,219438,220557
1630937442787,38349,219484,220552
1630937442797,38361,219535,220567
1630937442807,38379,219523,220590
1630937442817,38409,219565,220584
1630937442827,38426,219556,220610
1630937442837,38428,219627,220641
1630937442847,38452,219657,220663
1630937442857,38469,219655,220641
1630937442867,38481,219694,220690
1630937442877,38505,219715,220695
1630937442887,38517,219762,220748
1630937442897,38539,219771,220723
1630937442907,38556,219788,220753
1630937442917,38571,219801,220767
1630937442927,38590,219845,220801
1630937442937,38615,219838,220800
1630937442947,38627,219934,220831
1630937442957,38652,219918,220811
1630937442967,38669,219997,220829
1630937442977,38687,220002,220880
1630937442987,38704,220044,220896
1630937442997,38729,220060,220914
1630937443007,38750,220082,220937
1630937443017,38761,220103,220949
1630937443027,38781,220127,220954
1630937443037,38789,220125,220916
1630937443047,38774,220041,220805
1630937443057,38759,219952,220700
1630937443067,38729,219800,220577
1630937443077,38696,219681,220506
1630937443087,38663,219587,220416
1630937443097,38633,219516,220371
1630937443107,38603,219464,220346
1630937443117,38576,219424,220336
1630937443127,38559,219370,220294
1630937443137,38549,219360,220264
1630937443147,38543,219300,220286
1630937443157,38544,219274,220271
1630937443167,38524,219281,220266
1630937443177,38517,219242,220265
1630937443187,38524,219250,220283
1630937443197,38515,219267,220265
1630937443207,38510,219218,220293
1630937443217,38507,219236,220261
1630937443227,38504,219202,220219
1630937443237,38495,219166,220247
1630937443247,38505,219150,220219
1630937443257,38496,219163,220229
1630937443267,38495,219134,220228
1630937443277,38510,219141,220245
1630937443287,38510,219191,220278
1630937443297,38528,219223,220326
1630937443307,38552,219261,220368
1630937443317,38555,219286,220370
1630937443327,38567,219262,220354
1630937443337,38577,219240,220358
1630937443347,38576,219241,220356
1630937443357,38575,219259,220359
1630937443367,38581,219296,220335
1630937443377,38585,219265,220362
1630937443387,38593,219242,220367
1630937443397,38611,219282,220371
1630937443407,38615,219292,220387
1630937443417,38627,219286,220355
1630937443427,38628,219326,220382
1630937443437,38645,219325,220402
1630937443447,38655,219341,220421
1630937443457,38666,219348,220435
1630937443467,38688,219377,220445
1630937443477,38692,219407,220458
1630937443487,38711,219446,220510
1630937443497,38711,219446,220504
1630937443507,38730,219489,220529
1630937443517,38747,219514,220561
1630937443527,38767,219553,220559
1630937443537,38786,219559,220568
1630937443547,38797,219629,220598
1630937443557,38818,219650,220623
1630937443567,38842,219648,220642
1630937443577,38856,219705,220654
1630937443587,38877,219727,220685
1630937443597,38891,219737,220714
1630937443607,38909,219773,220735
1630937443617,38930,219809,220719
1630937443627,38946,219841,220724
1630937443637,38971,219842,220753
1630937443647,38998,219886,220794
1630937443657,38998,219901,220789
1630937443667,39016,219924,220784
1630937443677,39037,219968,220823
1630937443687,39054,219999,220827
1630937443697,39068,220006,220851
1630937443707,39084,220033,220853
1630937443717,39110,220062,220871
1630937443727,39126,220092,220871
1630937443737,39149,220150,220903
1630937443747,39163,220178,220937
1630937443757,39186,220208,220960
1630937443767,39209,220192,220945
1630937443777,39223,220261,220971
1630937443787,39249,220282,221010
1630937443797,39254,220337,220999
1630937443807,39283,220371,221053
1630937443817,39298,220370,221025
1630937443827,39321,220363,221039
1630937443837,39340,220448,221077
1630937443847,39361,220423,221084
1630937443857,39382,220488,221095
1630937443867,39401,220506,221133
1630937443877,39417,220535,221134
1630937443887,39434,220543,221146
1630937443897,39458,220610,221169
1630937443907,39489,220660,221190
1630937443917,39503,220710,221221
1630937443927,39516,220724,221231
1630937443937,39541,220721,221236
1630937443947,39551,220732,221199
1630937443957,39548,220649,221131
1630937443967,39539,220549,221040
1630937443977,39521,220447,220907
1630937443987,39496,220328,220814
1630937443997,39468,220249,220740
1630937444007,39445,220164,220681
1630937444017,39423,220090,220650
1630937444027,39405,220068,220631
1630937444037,39401,220044,220625
1630937444047,39394,219995,220620
1630937444057,39387,219960,220604
1630937444067,39391,219971,220581
1630937444077,39394,219966,220573
1630937444087,39382,219956,220588
1630937444097,39387,219952,220592
1630937444107,39380,219939,220559
1630937444117,39388,219947,220565
1630937444127,39378,219908,220553
1630937444137,39368,219899,220552
1630937444147,39383,219868,220506
1630937444157,39369,219850,220521
1630937444167,39368,219851,220489
1630937444177,39366,219822,220488
1630937444187,39367,219809,220509
1630937444197,39358,219785,220526
1630937444207,39373,219855,220543
1630937444217,39385,219848,220569
1630937444227,39403,219878,220624
1630937444237,39407,219882,220630
1630937444247,39419,219924,220603
1630937444257,39428,219918,220624
1630937444267,39429,219923,220642
1630937444277,39435,219917,220609
1630937444287,39446,219947,220600
1630937444297,39449,219909,220639
1630937444307,39466,219920,220624
1630937444317,39470,219953,220620
1630937444327,39467,219958,220628
1630937444337,39483,219974,220675
1630937444347,39495,219964,220678
1630937444357,39498,219986,220696
1630937444367,39511,219994,220709
1630937444377,39529,220048,220744
1630937444387,39535,220071,220764
1630937444397,39547,220029,220756
1630937444407,39561,220105,220746
1630937444417,39576,220137,220784
1630937444427,39580,220116,220808
1630937444437,39606,220145,220799
1630937444447,39613,220153,220816
1630937444457,39621,220201,220843
1630937444467,39624,220223,220873
1630937444477,39651,220263,220886
1630937444487,39666,220255,220890
1630937444497,39682,220268,220903
1630937444507,39692,220322,220925
1630937444517,39710,220352,220932
1630937444527,39719,220357,220946
1630937444537,39729,220367,220944
1630937444547,39742,220387,220924
1630937444557,39757,220429,220951
1630937444567,39774,220423,220970
1630937444577,39786,220458,221000
1630937444587,39794,220466,221004
1630937444597,39816,220503,220994
1630937444607,39815,220526,221025
1630937444617,39823,220554,221041
1630937444627,39840,220582,221044
1630937444637,39857,220625,221072
1630937444647,39879,220630,221064
1630937444657,39892,220683,221092
1630937444667,39901,220668,221095
1630937444677,39917,220700,221111
1630937444687,39924,220752,221119
1630937444697,39944,220754,221134
1630937444707,39963,220748,221134
1630937444717,39973,220813,221154
1630937444727,39979,220831,221178
1630937444737,40003,220860,221168
1630937444747,40015,220834,221174
1630937444757,40032,220920,221209
1630937444767,40044,220902,221232
1630937444777,40054,220960,221255
1630937444787,40072,220935,221231
1630937444797,40087,220961,221247
1630937444807,40090,221002,221248
1630937444817,40107,221031,221285
1630937444827,40121,221062,221293
1630937444837,40133,221055,221278
1630937444847,40146,221092,221295
1630937444857,40159,221140,221323
1630937444867,40179,221151,221340
1630937444877,40198,221191,221356
1630937444887,40201,221225,221376
1630937444897,40209,221201,221303
1630937444907,40204,221142,221256
1630937444917,40193,221056,221139
1630937444927,40150,220926,221063
1630937444937,40125,220829,220943
1630937444947,40080,220705,220811
1630937444957,40041,220598,220739
1630937444967,40021,220505,220720
1630937444977,39999,220479,220696
1630937444987,39971,220441,220639
1630937444997,39954,220408,220651
1630937445007,39935,220358,220614
1630937445017,39915,220355,220568
1630937445027,39908,220291,220591
1630937445037,39887,220274,220606
1630937445047,39877,220274,220579
1630937445057,39858,220209,220561
1630937445067,39847,220222,220548
1630937445077,39823,220197,220520
1630937445087,39806,220162,220509
1630937445097,39791,220160,220489
1630937445107,39782,220073,220496
1630937445117,39759,220070,220471
1630937445127,39739,220053,220454
1630937445137,39721,220041,220473
1630937445147,39710,220047,220460
1630937445157,39701,220019,220435
1630937445167,39697,220015,220493
1630937445177,39692,220066,220532
1630937445187,39694,220095,220555
1630937445197,39693,220101,220576
1630937445207,39691,220097,220543
1630937445217,39680,220114,220569
1630937445227,39685,220073,220566
1630937445237,39680,220089,220557
1630937445247,39666,220053,220550
1630937445257,39666,220068,220546
1630937445267,39653,220076,220541
1630937445277,39659,220074,220547
1630937445287,39654,220113,220583
1630937445297,39636,220079,220565
1630937445307,39632,220084,220551
1630937445317,39633,220070,220583
1630937445327,39632,220096,220608
1630937445337,39629,220108,220615
1630937445347,39634,220127,220622
1630937445357,39626,220151,220632
1630937445367,39631,220151,220630
1630937445377,39633,220186,220623
1630937445387,39636,220199,220656
1630937445397,39634,220210,220678
1630937445407,39639,220240,220710
1630937445417,39645,220269,220705
1630937445427,39646,220284,220731
1630937445437,39662,220319,220757
1630937445447,39667,220285,220761
1630937445457,39671,220359,220779
1630937445467,39674,220383,220791
1630937445477,39675,220397,220817
1630937445487,39679,220383,220849
1630937445497,39690,220418,220838
1630937445507,39696,220429,220875
1630937445517,39703,220448,220869
1630937445527,39712,220425,220867
1630937445537,39713,220461,220902
1630937445547,39711,220528,220923
1630937445557,39724,220508,220926
1630937445567,39715,220547,220955
1630937445577,39734,220572,220939
1630937445587,39732,220599,220923
1630937445597,39728,220623,220969
1630937445607,39743,220643,220988
1630937445617,39749,220664,220999
1630937445627,39755,220696,220995
1630937445637,39762,220691,221006
1630937445647,39767,220716,221030
1630937445657,39773,220730,221020
1630937445667,39781,220767,221067
1630937445677,39791,220787,221088
1630937445687,39793,220799,221124
1630937445697,39794,220834,221123
1630937445707,39816,220859,221125
1630937445717,39819,220854,221127
1630937445727,39821,220882,221136
1630937445737,39837,220936,221155
1630937445747,39845,220977,221176
1630937445757,39836,220960,221173
1630937445767,39850,221026,221205
1630937445777,39849,220977,221205
1630937445787,39858,221037,221245
1630937445797,39863,221053,221251
1630937445807,39868,221063,221274
1630937445817,39871,221113,221288
1630937445827,39884,221151,221302
1630937445837,39893,221202,221315
1630937445847,39900,221167,221310
1630937445857,39911,221213,221360
1630937445867,39913,221192,221353
1630937445877,39914,221208,221361
1630937445887,39900,221197,221273
1630937445897,39869,221069,221154
1630937445907,39835,220944,221061
1630937445917,39790,220811,220909
1630937445927,39732,220700,220847
1630937445937,39676,220588,220720
1630937445947,39624,220512,220676
1630937445957,39579,220441,220664
1630937445967,39542,220365,220637
1630937445977,39500,220366,220598
1630937445987,39468,220314,220591
1630937445997,39437,220280,220590
1630937446007,39406,220256,220566
1630937446017,39369,220223,220566
1630937446027,39340,220190,220539
1630937446037,39306,220147,220538
1630937446047,39271,220119,220507
1630937446057,39248,220042,220495
1630937446067,39215,220017,220472
1630937446077,39185,220020,220448
1630937446087,39150,219991,220423
1630937446097,39120,219926,220436
1630937446107,39087,219881,220428
1630937446117,39058,219854,220414
1630937446127,39031,219852,220433
1630937446137,39020,219855,220435
1630937446147,39010,219867,220493
1630937446157,38995,219950,220502
1630937446167,38991,219919,220525
1630937446177,38987,219925,220545
1630937446187,38973,219910,220551
1630937446197,38957,219914,220526
1630937446207,38942,219900,220550
1630937446217,38924,219866,220501
1630937446227,38908,219862,220548
1630937446237,38893,219887,220491
1630937446247,38881,219853,220523
1630937446257,38868,219860,220530
1630937446267,38862,219861,220504
1630937446277,38855,219854,220541
1630937446287,38845,219835,220525
1630937446297,38836,219843,220514
1630937446307,38826,219847,220525
1630937446317,38814,219867,220541
1630937446327,38834,219852,220574
1630937446337,38812,219877,220546
1630937446347,38812,219870,220574
1630937446357,38805,219890,220584
1630937446367,38802,219917,220570
1630937446377,38805,219915,220596
1630937446387,38813,219930,220618
1630937446397,38813,219955,220639
1630937446407,38808,219973,220657
1630937446417,38814,219993,220674
1630937446427,38807,219977,220672
1630937446437,38810,220033,220702
1630937446447,38815,220044,220711
1630937446457,38816,220023,220709
1630937446467,38815,220062,220734
1630937446477,38825,220096,220759
1630937446487,38834,220073,220730
1630937446497,38827,220053,220776
1630937446507,38838,220078,220784
1630937446517,38843,220110,220790
1630937446527,38836,220151,220797
1630937446537,38838,220134,220829
1630937446547,38854,220172,220830
1630937446557,38847,220166,220861
1630937446567,38855,220196,220852
1630937446577,38860,220223,220828
1630937446587,38861,220236,220878
1630937446597,38870,220268,220864
1630937446607,38878,220275,220912
1630937446617,38885,220294,220902
1630937446627,38885,220294,220922
1630937446637,38896,220339,220949
1630937446647,38906,220343,220972
1630937446657,38911,220393,220972
1630937446667,38925,220415,221000
1630937446677,38923,220431,221012
1630937446687,38931,220469,221009
1630937446697,38941,220464,221023
1630937446707,38945,220497,221040
1630937446717,38962,220502,221077
1630937446727,38966,220523,221065
1630937446737,38969,220545,221083
1630937446747,38975,220530,221137
1630937446757,38995,220605,221109
1630937446767,39004,220633,221149
1630937446777,39017,220648,221173
1630937446787,39018,220666,221177
1630937446797,39029,220690,221207
1630937446807,39047,220731,221217
1630937446817,39048,220732,221192
1630937446827,39040,220670,221147
1630937446837,39013,220599,221042
1630937446847,38979,220449,220915
1630937446857,38932,220344,220849
1630937446867,38874,220234,220714
1630937446877,38828,220117,220634
1630937446887,38773,220007,220580
1630937446897,38734,219965,220570
1630937446907,38688,219935,220540
1630937446917,38664,219896,220556
1630937446927,38640,219850,220524
1630937446937,38606,219789,220535
1630937446947,38583,219781,220497
1630937446957,38560,219759,220476
1630937446967,38535,219724,220475
1630937446977,38512,219715,220487
1630937446987,38490,219674,220491
1630937446997,38468,219631,220458
1630937447007,38451,219586,220426
1630937447017,38424,219573,220438
1630937447027,38416,219548,220430
1630937447037,38374,219535,220429
1630937447047,38354,219505,220423
1630937447057,38363,219472,220417
1630937447067,38337,219483,220433
1630937447077,38339,219473,220472
1630937447087,38333,219606,220550
1630937447097,38342,219597,220574
1630937447107,38348,219617,220577
1630937447117,38348,219614,220615
1630937447127,38347,219619,220614
1630937447137,38332,219608,220581
1630937447147,38330,219595,220616
1630937447157,38325,219628,220622
1630937447167,38316,219587,220625
1630937447177,38320,219610,220635
1630937447187,38316,219650,220651
1630937447197,38303,219610,220662
1630937447207,38304,219630,220657
1630937447217,38309,219649,220705
1630937447227,38329,219636,220699
1630937447237,38320,219641,220691
1630937447247,38316,219650,220705
1630937447257,38331,219670,220743
1630937447267,38325,219684,220765
1630937447277,38334,219701,220769
1630937447287,38342,219696,220787
1630937447297,38350,219739,220807
1630937447307,38362,219776,220875
1630937447317,38367,219825,220859
1630937447327,38380,219830,220890
1630937447337,38388,219868,220933
1630937447347,38397,219902,220945
1630937447357,38425,219928,220991
1630937447367,38425,219984,221019
1630937447377,38452,220082,221112
1630937447387,38484,220236,221287
1630937447397,38502,220302,221314
1630937447407,38518,220311,221366
1630937447417,38525,220356,221359
1630937447427,38540,220387,221360
1630937447437,38549,220348,221396
1630937447447,38558,220430,221422
1630937447457,38580,220434,221436
1630937447467,38583,220450,221452
1630937447477,38600,220481,221500
1630937447487,38615,220495,221475
1630937447497,38633,220532,221511
1630937447507,38638,220563,221529
1630937447517,38657,220599,221561
1630937447527,38665,220624,221573
1630937447537,38676,220665,221557
1630937447547,38692,220692,221603
1630937447557,38702,220712,221612
1630937447567,38720,220712,221626
1630937447577,38732,220752,221670
1630937447587,38746,220783,221674
1630937447597,38763,220800,221700
1630937447607,38772,220838,221695
1630937447617,38791,220910,221745
1630937447627,38811,220873,221752
1630937447637,38824,220909,221766
1630937447647,38831,220934,221787
1630937447657,38849,220958,221813
1630937447667,38871,221000,221835
1630937447677,38895,221031,221834
1630937447687,38893,221077,221863
1630937447697,38915,221102,221878
1630937447707,38934,221135,221882
1630937447717,38950,221167,221914
1630937447727,38965,221175,221923
1630937447737,38985,221203,221960
1630937447747,38997,221244,221992
1630937447757,39017,221309,221988
1630937447767,39029,221296,222008
1630937447777,39041,221279,221991
1630937447787,39034,221228,221891
1630937447797,39019,221122,221805
1630937447807,38991,221016,221669
1630937447817,38954,220879,221573
1630937447827,38908,220743,221469
1630937447837,38862,220661,221389
1630937447847,38836,220591,221389
1630937447857,38802,220543,221373
1630937447867,38791,220507,221306
1630937447877,38752,220450,221288
1630937447887,38740,220456,221302
1630937447897,38722,220419,221276
1630937447907,38703,220402,221268
1630937447917,38698,220338,221264
1630937447927,38682,220374,221270
1630937447937,38676,220320,221276
1630937447947,38668,220305,221259
1630937447957,38659,220306,221293
1630937447967,38651,220274,221275
1630937447977,38639,220249,221238
1630937447987,38628,220228,221233
1630937447997,38625,220235,221234
1630937448007,38621,220181,221242
1630937448017,38614,220172,221214
1630937448027,38613,220171,221264
1630937448037,38613,220191,221315
1630937448047,38619,220226,221299
1630937448057,38630,220242,221336
1630937448067,38639,220271,221388
1630937448077,38643,220293,221375
1630937448087,38659,220305,221378
1630937448097,38662,220283,221402
1630937448107,38670,220333,221417
1630937448117,38675,220321,221407
1630937448127,38680,220320,221400
1630937448137,38683,220305,221434
1630937448147,38690,220346,221429
1630937448157,38692,220345,221449
1630937448167,38707,220399,221445
1630937448177,38715,220401,221477
1630937448187,38728,220399,221478
1630937448197,38730,220396,221510
1630937448207,38738,220435,221504
1630937448217,38757,220447,221538
1630937448227,38769,220470,221549
1630937448237,38782,220500,221567
1630937448247,38794,220500,221551
1630937448257,38807,220481,221595
1630937448267,38817,220565,221596
1630937448277,38829,220572,221630
1630937448287,38847,220611,221655
1630937448297,38872,220665,221674
1630937448307,38875,220648,221683
1630937448317,38896,220722,221713
1630937448327,38907,220738,221715
1630937448337,38931,220731,221738
1630937448347,38949,220783,221776
1630937448357,38957,220806,221792
1630937448367,38980,220795,221784
1630937448377,38990,220810,221809
1630937448387,39012,220870,221822
1630937448397,39021,220886,221838
1630937448407,39043,220940,221818
1630937448417,39055,220967,221851
1630937448427,39074,220979,221858
1630937448437,39084,220977,221875
1630937448447,39114,221018,221903
1630937448457,39127,221047,221920
1630937448467,39145,221070,221922
1630937448477,39163,221106,221923
1630937448487,39175,221098,221959
1630937448497,39188,221136,221956
1630937448507,39219,221201,222002
1630937448517,39240,221233,222001
1630937448527,39243,221214,221982
1630937448537,39258,221270,222036
1630937448547,39281,221275,222068
1630937448557,39299,221335,222099
1630937448567,39317,221354,222099
1630937448577,39339,221386,222096
1630937448587,39366,221428,222134
1630937448597,39380,221462,222175
1630937448607,39400,221518,222172
1630937448617,39418,221499,222182
1630937448627,39437,221520,222167
1630937448637,39453,221590,222218
1630937448647,39470,221594,222213
1630937448657,39493,221659,222247
1630937448667,39510,221669,222265
1630937448677,39523,221670,222251
1630937448687,39546,221718,222300
1630937448697,39565,221759,222301
1630937448707,39579,221758,222321
1630937448717,39591,221806,222334
1630937448727,39619,221856,222363
1630937448737,39643,221875,222357
1630937448747,39656,221896,222371
1630937448757,39680,221931,222408
1630937448767,39697,221951,222414
1630937448777,39720,221968,222436
1630937448787,39731,221985,222410
1630937448797,39742,221977,222376
1630937448807,39743,221894,222274
1630937448817,39714,221803,222178
1630937448827,39699,221666,222041
1630937448837,39656,221554,221960
1630937448847,39630,221462,221827
1630937448857,39606,221392,221811
1630937448867,39590,221339,221741
1630937448877,39574,221285,221748
1630937448887,39564,221252,221742
1630937448897,39552,221227,221708
1630937448907,39546,221216,221709
1630937448917,39545,221219,221705
1630937448927,39542,221193,221710
1630937448937,39543,221172,221731
1630937448947,39538,221167,221713
1630937448957,39542,221194,221717
1630937448967,39532,221127,221719
1630937448977,39526,221127,221672
1630937448987,39520,221098,221692
1630937448997,39521,221101,221671
1630937449007,39526,221099,221655
1630937449017,39516,221083,221657
1630937449027,39510,221089,221620
1630937449037,39515,221048,221647
1630937449047,39515,221066,221672
1630937449057,39522,221059,221669
1630937449067,39534,221098,221724
1630937449077,39554,221139,221766
1630937449087,39568,221177,221755
1630937449097,39579,221195,221766
1630937449107,39580,221203,221801
1630937449117,39590,221198,221822
1630937449127,39598,221205,221777
1630937449137,39612,221200,221764
1630937449147,39608,221185,221765
1630937449157,39608,221222,221808
1630937449167,39633,221245,221814
1630937449177,39637,221259,221835
1630937449187,39631,221255,221812
1630937449197,39649,221274,221818
1630937449207,39659,221296,221813
1630937449217,39675,221325,221865
1630937449227,39678,221294,221881
1630937449237,39697,221354,221893
1630937449247,39705,221391,221895
1630937449257,39720,221385,221909
1630937449267,39725,221383,221931
1630937449277,39742,221379,221962
1630937449287,39749,221466,221963
1630937449297,39761,221499,221958
1630937449307,39776,221509,222003
1630937449317,39795,221490,222041
1630937449327,39811,221545,222036
1630937449337,39824,221559,222041
1630937449347,39843,221594,222078
1630937449357,39852,221619,222092
1630937449367,39871,221663,222111
1630937449377,39887,221675,222137
1630937449387,39898,221677,222110
1630937449397,39911,221725,222152
1630937449407,39926,221751,222182
1630937449417,39940,221775,222185
1630937449427,39949,221752,222169
1630937449437,39966,221789,222213
1630937449447,39975,221838,222200
1630937449457,39988,221862,222217
1630937449467,40009,221886,222242
1630937449477,40016,221919,222229
1630937449487,40035,221947,222258
1630937449497,40064,221961,222281
1630937449507,40061,222000,222279
1630937449517,40083,222013,222288
1630937449527,40097,222027,222305
1630937449537,40106,222071,222292
1630937449547,40123,222060,222326
1630937449557,40146,222115,222340
1630937449567,40150,222111,222348
1630937449577,40165,222160,222369
1630937449587,40180,222187,222356
1630937449597,40196,222185,222386
1630937449607,40214,222212,222384
1630937449617,40226,222239,222424
1630937449627,40232,222267,222430
1630937449637,40255,222276,222435
1630937449647,40266,222343,222480
1630937449657,40281,222339,222464
1630937449667,40294,222375,222483
1630937449677,40301,222403,222494
1630937449687,40322,222388,222498
1630937449697,40334,222443,222519
1630937449707,40349,222480,222539
1630937449717,40374,222473,222529
1630937449727,40386,222528,222568
1630937449737,40403,222530,222587
1630937449747,40415,222597,222583
1630937449757,40426,222623,222611
1630937449767,40450,222612,222633
1630937449777,40466,222633,222636
1630937449787,40468,222634,222665
1630937449797,40493,222704,222654
1630937449807,40478,222591,222580
1630937449817,40470,222544,222476
1630937449827,40445,222428,222337
1630937449837,40419,222313,222221
1630937449847,40384,222208,222137
1630937449857,40346,222119,222093
1630937449867,40337,222058,222030
1630937449877,40309,222023,222018
1630937449887,40302,222028,221999
1630937449897,40292,221984,222008
1630937449907,40276,221944,221970
1630937449917,40267,221951,221987
1630937449927,40262,221910,221997
1630937449937,40252,221939,221975
1630937449947,40240,221912,221966
1630937449957,40237,221919,221998
1630937449967,40210,221903,221962
1630937449977,40214,221880,221953
1630937449987,40209,221869,221961
1630937449997,40199,221847,221941
1630937450007,40187,221828,221953
1630937450017,40171,221819,221932
1630937450027,40164,221816,221936
1630937450037,40153,221829,221893
1630937450047,40152,221796,221936
1630937450057,40149,221811,221958
1630937450067,40154,221842,222019
1630937450077,40160,221872,222024
1630937450087,40155,221860,222018
1630937450097,40151,221868,222030
1630937450107,40149,221850,222053
1630937450117,40149,221859,222005
1630937450127,40145,221867,222008
1630937450137,40142,221855,221993
1630937450147,40115,221840,221975
1630937450157,40119,221839,221994
1630937450167,40116,221878,221992
1630937450177,40114,221847,222010
1630937450187,40106,221874,221992
1630937450197,40103,221877,221984
1630937450207,40106,221867,222009
1630937450217,40110,221862,222011
1630937450227,40101,221896,222039
1630937450237,40107,221906,222008
1630937450247,40106,221906,222045
1630937450257,40094,221911,222041
1630937450267,40104,221914,222087
1630937450277,40116,221969,222093
1630937450287,40121,221978,222093
1630937450297,40111,221960,222136
1630937450307,40114,221970,222123
1630937450317,40122,222031,222132
1630937450327,40132,222035,222148
1630937450337,40128,222021,222161
1630937450347,40126,222057,222151
1630937450357,40133,222085,222165
1630937450367,40138,222103,222164
1630937450377,40139,222127,222187
1630937450387,40150,222111,222205
1630937450397,40152,222140,222220
1630937450407,40161,222160,222228
1630937450417,40158,222144,222198
1630937450427,40171,222162,222233
1630937450437,40159,222192,222231
1630937450447,40175,222197,222241
1630937450457,40185,222219,222254
1630937450467,40187,222225,222208
1630937450477,40180,222253,222244
1630937450487,40183,222270,222250
1630937450497,40195,222265,222282
1630937450507,40196,222282,222268
1630937450517,40200,222315,222294
1630937450527,40196,222328,222265
1630937450537,40207,222356,222294
1630937450547,40212,222357,222311
1630937450557,40214,222343,222301
1630937450567,40222,222367,222299
1630937450577,40226,222379,222310
1630937450587,40233,222368,222339
1630937450597,40241,222398,222323
1630937450607,40231,222432,222307
1630937450617,40248,222426,222317
1630937450627,40249,222460,222348
1630937450637,40248,222473,222330
1630937450647,40256,222492,222352
1630937450657,40267,222478,222355
1630937450667,40276,222533,222403
1630937450677,40281,222571,222410
1630937450687,40284,222593,222401
1630937450697,40295,222625,222439
1630937450707,40289,222608,222446
1630937450717,40295,222627,222404
1630937450727,40290,222512,222297
1630937450737,40243,222403,222179
1630937450747,40199,222249,222047
1630937450757,40153,222144,221944
1630937450767,40109,222018,221888
1630937450777,40066,221932,221784
1630937450787,40019,221866,221746
1630937450797,39978,221814,221714
1630937450807,39940,221780,221681
1630937450817,39897,221722,221670
1630937450827,39862,221701,221649
1630937450837,39835,221679,221602
1630937450847,39803,221609,221632
1630937450857,39766,221573,221611
1630937450867,39749,221564,221584
1630937450877,39714,221542,221593
1630937450887,39690,221495,221558
1630937450897,39649,221489,221536
1630937450907,39633,221442,221533
1630937450917,39594,221430,221514
1630937450927,39575,221390,221509
1630937450937,39533,221354,221485
1630937450947,39504,221294,221481
1630937450957,39478,221289,221471
1630937450967,39451,221252,221474
1630937450977,39428,221247,221463
1630937450987,39432,221255,221531
1630937450997,39421,221284,221526
1630937451007,39409,221312,221547
1630937451017,39399,221322,221544
1630937451027,39388,221313,221531
1630937451037,39373,221294,221495
1630937451047,39354,221246,221503
1630937451057,39334,221260,221505
1630937451067,39327,221249,221508
1630937451077,39310,221243,221506
1630937451087,39305,221214,221479
1630937451097,39276,221220,221498
1630937451107,39265,221219,221511
1630937451117,39267,221196,221493
1630937451127,39255,221221,221497
1630937451137,39245,221234,221506
1630937451147,39239,221207,221515
1630937451157,39237,221237,221486
1630937451167,39227,221227,221539
1630937451177,39220,221230,221536
1630937451187,39218,221234,221526
1630937451197,39211,221224,221567
1630937451207,39212,221248,221572
1630937451217,39208,221284,221586
1630937451227,39213,221295,221611
1630937451237,39214,221292,221619
1630937451247,39220,221290,221617
1630937451257,39229,221337,221648
1630937451267,39228,221327,221627
1630937451277,39220,221355,221658
1630937451287,39223,221378,221671
1630937451297,39221,221385,221690
1630937451307,39226,221389,221680
1630937451317,39230,221389,221703
1630937451327,39237,221424,221685
1630937451337,39228,221414,221704
1630937451347,39233,221410,221727
1630937451357,39238,221437,221717
1630937451367,39240,221448,221724
1630937451377,39235,221475,221737
1630937451387,39242,221461,221724
1630937451397,39250,221458,221723
1630937451407,39248,221510,221766
1630937451417,39249,221507,221732
1630937451427,39251,221545,221766
1630937451437,39260,221610,221776
1630937451447,39271,221566,221798
1630937451457,39270,221608,221805
1630937451467,39271,221641,221806
1630937451477,39280,221640,221832
1630937451487,39295,221661,221848
1630937451497,39290,221661,221844
1630937451507,39298,221688,221850
1630937451517,39311,221695,221884
1630937451527,39317,221709,221888
1630937451537,39317,221709,221858
1630937451547,39314,221731,221890
1630937451557,39330,221769,221903
1630937451567,39336,221784,221930
1630937451577,39343,221833,221935
1630937451587,39343,221844,221973
1630937451597,39345,221864,221971
1630937451607,39356,221868,221983
1630937451617,39365,221893,221987
1630937451627,39372,221917,222007
1630937451637,39377,221927,222004
1630937451647,39376,221925,221988
1630937451657,39366,221841,221916
1630937451667,39337,221772,221825
1630937451677,39292,221636,221702
1630937451687,39243,221464,221558
1630937451697,39191,221339,221463
1630937451707,39126,221257,221408
1630937451717,39075,221143,221325
1630937451727,39027,221115,221299
1630937451737,38985,221049,221274
1630937451747,38944,221008,221259
1630937451757,38895,220941,221235
1630937451767,38870,220892,221217
1630937451777,38838,220850,221175
1630937451787,38806,220821,221180
1630937451797,38768,220765,221149
1630937451807,38744,220728,221172
1630937451817,38714,220721,221140
1630937451827,38684,220664,221131
1630937451837,38654,220615,221093
1630937451847,38636,220583,221052
1630937451857,38599,220550,221068
1630937451867,38570,220485,221039
1630937451877,38545,220463,221028
1630937451887,38505,220403,220996
1630937451897,38483,220348,221024
1630937451907,38471,220370,221015
1630937451917,38461,220396,221047
1630937451927,38470,220429,221089
1630937451937,38458,220449,221111
1630937451947,38463,220421,221139
1630937451957,38443,220441,221090
1630937451967,38437,220397,221119
1630937451977,38424,220409,221150
1630937451987,38415,220428,221164
1630937451997,38402,220422,221130
1630937452007,38398,220384,221168
1630937452017,38400,220367,221162
1630937452027,38393,220407,221166
1630937452037,38383,220370,221181
1630937452047,38385,220410,221196
1630937452057,38388,220395,221195
1630937452067,38392,220412,221200
1630937452077,38383,220415,221225
1630937452087,38390,220457,221265
1630937452097,38384,220429,221270
1630937452107,38387,220461,221276
1630937452117,38390,220446,221318
1630937452127,38395,220487,221337
1630937452137,38406,220482,221343
1630937452147,38403,220526,221369
1630937452157,38421,220520,221388
1630937452167,38423,220518,221403
1630937452177,38436,220588,221419
1630937452187,38440,220605,221447
1630937452197,38457,220643,221490
1630937452207,38468,220650,221490
1630937452217,38485,220683,221512
1630937452227,38490,220654,221549
1630937452237,38489,220687,221541
1630937452247,38490,220751,221562
1630937452257,38498,220736,221587
1630937452267,38514,220816,221592
1630937452277,38532,220811,221626
1630937452287,38539,220832,221624
1630937452297,38547,220810,221663
1630937452307,38553,220848,221669
1630937452317,38569,220872,221684
1630937452327,38579,220915,221704
1630937452337,38591,220932,221722
1630937452347,38597,220914,221745
1630937452357,38613,220973,221763
1630937452367,38634,220990,221786
1630937452377,38638,221011,221797
1630937452387,38651,221045,221818
1630937452397,38657,221055,221823
1630937452407,38677,221098,221859
1630937452417,38685,221112,221885
1630937452427,38697,221145,221883
1630937452437,38716,221143,221892
1630937452447,38726,221180,221952
1630937452457,38734,221204,221940
1630937452467,38750,221236,221961
1630937452477,38755,221245,221970
1630937452487,38777,221262,221995
1630937452497,38788,221301,222014
1630937452507,38803,221323,222032
1630937452517,38814,221379,222019
1630937452527,38826,221350,222080
1630937452537,38852,221401,222075
1630937452547,38859,221429,222134
1630937452557,38866,221455,222116
1630937452567,38883,221489,222122
1630937452577,38907,221516,222171
1630937452587,38918,221541,222178
1630937452597,38933,221564,222181
1630937452607,38929,221543,222132
1630937452617,38915,221426,222043
1630937452627,38890,221346,221935
1630937452637,38846,221207,221799
1630937452647,38806,221103,221718
1630937452657,38767,220981,221637
1630937452667,38728,220923,221609
1630937452677,38701,220908,221566
1630937452687,38683,220864,221556
1630937452697,38656,220805,221545
1630937452707,38636,220801,221559
1630937452717,38618,220736,221521
1630937452727,38601,220723,221538
1630937452737,38595,220720,221542
1630937452747,38587,220688,221492
1630937452757,38570,220656,221527
1630937452767,38560,220641,221529
1630937452777,38550,220643,221518
1630937452787,38539,220588,221488
1630937452797,38525,220581,221520
1630937452807,38520,220556,221493
1630937452817,38502,220531,221496
1630937452827,38504,220510,221477
1630937452837,38485,220493,221483
1630937452847,38485,220476,221505
1630937452857,38493,220502,221519
1630937452867,38502,220537,221552
1630937452877,38498,220587,221577
1630937452887,38512,220592,221591
1630937452897,38518,220570,221616
1630937452907,38524,220568,221626
1630937452917,38523,220592,221599
1630937452927,38529,220577,221593
1630937452937,38529,220567,221590
1630937452947,38524,220591,221571
1630937452957,38535,220586,221615
1630937452967,38548,220569,221621
1630937452977,38551,220601,221623
1630937452987,38555,220611,221650
1630937452997,38558,220615,221643
1630937453007,38575,220629,221665
1630937453017,38573,220630,221642
1630937453027,38590,220647,221680
1630937453037,38589,220672,221739
1630937453047,38607,220643,221718
1630937453057,38609,220680,221729
1630937453067,38625,220719,221729
1630937453077,38636,220735,221765
1630937453087,38648,220743,221755
1630937453097,38664,220740,221817
1630937453107,38675,220809,221846
1630937453117,38690,220814,221861
1630937453127,38704,220895,221879
1630937453137,38723,220866,221884
1630937453147,38734,220908,221902
1630937453157,38746,220914,221938
1630937453167,38778,220937,221946
1630937453177,38791,220987,221966
1630937453187,38802,220990,221987
1630937453197,38817,221026,221981
1630937453207,38832,221065,222034
1630937453217,38851,221060,222030
1630937453227,38867,221091,222041
1630937453237,38885,221159,222059
1630937453247,38895,221157,222082
1630937453257,38914,221192,222122
1630937453267,38934,221202,222109
1630937453277,38947,221269,222113
1630937453287,38966,221284,222129
1630937453297,38990,221304,222147
1630937453307,39000,221344,222184
1630937453317,39012,221343,222204
1630937453327,39038,221392,222247
1630937453337,39052,221402,222225
1630937453347,39078,221430,222244
1630937453357,39079,221467,222261
1630937453367,39103,221451,222285
1630937453377,39128,221498,222337
1630937453387,39148,221536,222320
1630937453397,39154,221544,222330
1630937453407,39176,221569,222355
1630937453417,39200,221608,222356
1630937453427,39209,221662,222394
1630937453437,39236,221696,222409
1630937453447,39247,221714,222438
1630937453457,39276,221711,222430
1630937453467,39299,221778,222468
1630937453477,39310,221814,222468
1630937453487,39319,221770,222431
1630937453497,39313,221702,222352
1630937453507,39300,221627,222266
1630937453517,39267,221508,222156
1630937453527,39256,221425,222075
1630937453537,39224,221322,221998
1630937453547,39188,221333,221987
1630937453557,39197,221272,221968
1630937453567,39168,221255,221961
1630937453577,39168,221240,221959
1630937453587,39158,221188,221939
1630937453597,39156,221148,221932
1630937453607,39146,221150,221912
1630937453617,39145,221130,221904
1630937453627,39146,221121,221899
1630937453637,39138,221122,221897
1630937453647,39135,221107,221893
1630937453657,39131,221075,221881
1630937453667,39128,221061,221834
1630937453677,39127,221032,221829
1630937453687,39131,221020,221862
1630937453697,39119,221009,221860
1630937453707,39125,220990,221817
1630937453717,39115,220984,221807
1630937453727,39126,221029,221864
1630937453737,39135,221031,221871
1630937453747,39149,221109,221944
1630937453757,39168,221113,222010
1630937453767,39176,221157,221985
1630937453777,39198,221162,222011
1630937453787,39207,221176,222019
1630937453797,39205,221205,222004
1630937453807,39222,221227,222034
1630937453817,39234,221200,222021
1630937453827,39236,221184,222046
1630937453837,39240,221211,222056
1630937453847,39266,221222,222071
1630937453857,39266,221232,222066
1630937453867,39290,221265,222070
1630937453877,39297,221280,222101
1630937453887,39301,221299,222080
1630937453897,39314,221282,222107
1630937453907,39331,221321,222124
1630937453917,39347,221355,222131
1630937453927,39370,221362,222144
1630937453937,39377,221403,222165
1630937453947,39387,221423,222157
1630937453957,39405,221406,222171
1630937453967,39428,221458,222203
1630937453977,39443,221467,222226
1630937453987,39468,221501,222254
1630937453997,39492,221502,222282
1630937454007,39492,221569,222285
1630937454017,39512,221609,222328
1630937454027,39528,221620,222327
1630937454037,39546,221644,222339
1630937454047,39557,221685,222377
1630937454057,39580,221735,222375
1630937454067,39599,221685,222364
1630937454077,39613,221752,222388
1630937454087,39626,221777,222400
1630937454097,39650,221776,222445
1630937454107,39659,221808,222456
1630937454117,39677,221860,222434
1630937454127,39702,221855,222465
1630937454137,39708,221907,222473
1630937454147,39726,221924,222471
1630937454157,39754,221947,222503
1630937454167,39768,221976,222485
1630937454177,39780,222003,222501
1630937454187,39805,222015,222498
1630937454197,39812,222041,222552
1630937454207,39829,222069,222544
1630937454217,39852,222100,222610
1630937454227,39869,222120,222570
1630937454237,39893,222112,222608
1630937454247,39906,222176,222615
1630937454257,39914,222187,222628
1630937454267,39943,222264,222649
1630937454277,39952,222300,222652
1630937454287,39971,222279,222680
1630937454297,39987,222331,222663
1630937454307,40004,222330,222709
1630937454317,40019,222374,222726
1630937454327,40043,222387,222703
1630937454337,40055,222456,222748
1630937454347,40068,222450,222764
1630937454357,40085,222490,222774
1630937454367,40095,222499,222804
1630937454377,40113,222517,222799
1630937454387,40142,222564,222832
1630937454397,40159,222615,222844
1630937454407,40176,222604,222843
1630937454417,40196,222635,222868
1630937454427,40207,222633,222830
1630937454437,40215,222595,222790
1630937454447,40208,222497,222691
1630937454457,40184,222441,222599
1630937454467,40155,222344,222473
1630937454477,40144,222205,222388
1630937454487,40116,222153,222319
1630937454497,40094,222076,222294
1630937454507,40086,222053,222268
1630937454517,40064,222048,222248
1630937454527,40050,221993,222211
1630937454537,40045,221985,222216
1630937454547,40036,221992,222203
1630937454557,40033,221926,222198
1630937454567,40021,221939,222194
1630937454577,40017,221911,222144
1630937454587,40007,221900,222151
1630937454597,39999,221876,222113
1630937454607,39987,221840,222088
1630937454617,39978,221815,222124
1630937454627,39972,221799,222104
1630937454637,39970,221781,222099
1630937454647,39964,221779,222083
1630937454657,39929,221737,222037
1630937454667,39947,221753,222029
1630937454677,39932,221732,222027
1630937454687,39923,221726,222056
1630937454697,39931,221731,222077
1630937454707,39934,221780,222103
1630937454717,39954,221794,222107
1630937454727,39946,221811,222170
1630937454737,39958,221822,222137
1630937454747,39958,221819,222171
1630937454757,39963,221837,222155
1630937454767,39958,221811,222170
1630937454777,39957,221815,222145
1630937454787,39963,221817,222113
1630937454797,39963,221833,222157
1630937454807,39969,221850,222164
1630937454817,39967,221834,222165
1630937454827,39976,221838,222167
1630937454837,39979,221859,222207
1630937454847,39981,221865,222165
1630937454857,39983,221857,222232
1630937454867,39988,221877,222198
1630937454877,39993,221906,222206
1630937454887,40001,221923,222228
1630937454897,40009,221944,222225
1630937454907,40013,221917,222263
1630937454917,40025,221972,222258
1630937454927,40029,222012,222267
1630937454937,40037,221988,222267
1630937454947,40043,221999,222267
1630937454957,40052,222003,222306
1630937454967,40057,222028,222304
1630937454977,40073,222101,222336
1630937454987,40089,222124,222312
1630937454997,40096,222119,222344
1630937455007,40104,222131,222350
1630937455017,40110,222164,222387
1630937455027,40114,222136,222388
1630937455037,40122,222147,222394
1630937455047,40126,222213,222371
1630937455057,40138,222248,222412
1630937455067,40148,222225,222409
1630937455077,40162,222211,222410
1630937455087,40163,222276,222412
1630937455097,40178,222272,222421
1630937455107,40181,222286,222428
1630937455117,40192,222360,222448
1630937455127,40198,222324,222422
1630937455137,40202,222340,222453
1630937455147,40212,222377,222457
1630937455157,40230,222396,222483
1630937455167,40228,222436,222484
1630937455177,40253,222432,222499
1630937455187,40246,222500,222532
1630937455197,40260,222498,222542
1630937455207,40270,222527,222560
1630937455217,40288,222547,222568
1630937455227,40295,222588,222598
1630937455237,40311,222557,222614
1630937455247,40315,222601,222600
1630937455257,40325,222631,222621
1630937455267,40338,222621,222641
1630937455277,40344,222683,222653
1630937455287,40351,222679,222647
1630937455297,40359,222743,222634
1630937455307,40371,222749,222665
1630937455317,40385,222747,222688
1630937455327,40401,222766,222705
1630937455337,40396,222792,222698
1630937455347,40411,222835,222710
1630937455357,40432,222841,222741
