timestamp,green,ir,red
1630937420095,65806,372833,358793
1630937420105,65787,372850,358779
1630937420115,65772,372834,358771
1630937420125,65756,372789,358766
1630937420135,65745,372754,358748
1630937420145,65730,372722,358705
1630937420155,65733,372750,358679
1630937420165,65708,372741,358693
1630937420175,65701,372686,358684
1630937420185,65690,372725,358668
1630937420195,65682,372635,358644
1630937420205,65666,372620,358623
1630937420215,65651,372602,358596
1630937420225,65644,372623,358623
1630937420235,65653,372547,358616
1630937420245,65625,372530,358594
1630937420255,65627,372560,358586
1630937420265,65628,372579,358581
1630937420275,65612,372554,358585
1630937420285,65619,372526,358573
1630937420295,65601,372491,358553
1630937420305,65592,372458,358530
1630937420315,65581,372461,358501
1630937420325,65557,372472,358480
1630937420335,65537,372427,358444
1630937420345,65537,372404,358410
1630937420355,65513,372430,358393
1630937420365,65501,372332,358394
1630937420375,65488,372330,358379
1630937420385,65490,372377,358347
1630937420395,65486,372380,358334
1630937420405,65464,372389,358343
1630937420415,65474,372333,358314
1630937420425,65463,372333,358300
1630937420435,65443,372420,358332
1630937420445,65459,372357,358290
1630937420455,65463,372355,358313
1630937420465,65467,372363,358328
1630937420475,65451,372390,358248
1630937420485,65441,372365,358306
1630937420495,65446,372358,358260
1630937420505,65447,372341,358275
1630937420515,65453,372334,358294
1630937420525,65467,372381,358311
1630937420535,65482,372405,358311
1630937420545,65490,372424,358315
1630937420555,65511,372429,358339
1630937420565,65527,372471,358415
1630937420575,65542,372449,358386
1630937420585,65541,372490,358422
1630937420595,65541,372461,358385
1630937420605,65549,372470,358380
1630937420615,65565,372472,358443
1630937420625,65570,372534,358434
1630937420635,65570,372556,358451
1630937420645,65594,372568,358474
1630937420655,65614,372627,358509
1630937420665,65641,372684,358517
1630937420675,65666,372775,358578
1630937420685,65684,372738,358580
1630937420695,65695,372780,358621
1630937420705,65726,372807,358609
1630937420715,65728,372806,358667
1630937420725,65746,372850,358659
1630937420735,65756,372902,358656
1630937420745,65779,372873,358673
1630937420755,65769,372886,358678
1630937420765,65786,372917,358694
1630937420775,65790,372987,358707
1630937420785,65794,372921,358699
1630937420795,65786,372918,358731
1630937420805,65807,372921,358690
1630937420815,65819,372974,358721
1630937420825,65827,373037,358774
1630937420835,65865,373039,358763
1630937420845,65882,373048,358793
1630937420855,65896,373074,358860
1630937420865,65918,373128,358836
1630937420875,65919,373118,358883
1630937420885,65937,373128,358916
1630937420895,65956,373086,358910
1630937420905,65938,373077,358928
1630937420915,65929,373078,358933
1630937420925,65919,373118,358937
1630937420935,65909,373097,358902
1630937420945,65911,373051,358930
1630937420955,65914,373028,358922
1630937420965,65883,373024,359009
1630937420975,65884,373026,358981
1630937420985,65879,373004,358960
1630937420995,65871,372938,358993
1630937421005,65856,372932,358975
1630937421015,65847,372989,359000
1630937421025,65823,372874,358949
1630937421035,65818,372913,358940
1630937421045,65802,372873,358940
1630937421055,65769,372822,358893
1630937421065,65741,372740,358889
1630937421075,65711,372758,358865
1630937421085,65687,372693,358823
1630937421095,65661,372677,358806
1630937421105,65639,372607,358796
1630937421115,65599,372587,358780
1630937421125,65584,372587,358726
1630937421135,65557,372554,358685
1630937421145,65522,372484,358652
1630937421155,65503,372435,358648
1630937421165,65471,372450,358586
1630937421175,65446,372399,358552
1630937421185,65421,372326,358545
1630937421195,65398,372303,358567
1630937421205,65381,372256,358491
1630937421215,65342,372216,358464
1630937421225,65320,372185,358394
1630937421235,65285,372141,358372
1630937421245,65273,372114,358354
1630937421255,65253,372145,358382
1630937421265,65242,372105,358343
1630937421275,65217,372028,358346
1630937421285,65195,372034,358297
1630937421295,65172,371998,358266
1630937421305,65153,371966,358271
1630937421315,65128,371944,358260
1630937421325,65117,371960,358228
1630937421335,65113,371915,358210
1630937421345,65098,371879,358249
1630937421355,65073,371835,358131
1630937421365,65040,371816,358124
1630937421375,65022,371732,358115
1630937421385,65011,371754,358059
1630937421395,64976,371667,358048
1630937421405,64956,371663,358037
1630937421415,64932,371604,357964
1630937421425,64904,371625,357957
1630937421435,64860,371573,357901
1630937421445,64846,371558,357874
1630937421455,64824,371500,357831
1630937421465,64807,371494,357783
1630937421475,64782,371423,357787
1630937421485,64758,371419,357739
1630937421495,64738,371355,357731
1630937421505,64712,371390,357683
1630937421515,64688,371334,357642
1630937421525,64682,371291,357661
1630937421535,64663,371241,357602
1630937421545,64632,371205,357581
1630937421555,64618,371201,357516
1630937421565,64592,371097,357481
1630937421575,64570,371043,357451
1630937421585,64525,370989,357423
1630937421595,64500,370973,357352
1630937421605,64472,370905,357337
1630937421615,64433,370850,357297
1630937421625,64413,370830,357228
1630937421635,64379,370821,357230
1630937421645,64366,370764,357168
1630937421655,64338,370732,357173
1630937421665,64324,370649,357133
1630937421675,64308,370633,357106
1630937421685,64295,370606,357076
1630937421695,64275,370534,357090
1630937421705,64292,370550,357109
1630937421715,64293,370563,357137
1630937421725,64277,370517,357137
1630937421735,64283,370486,357172
1630937421745,64271,370426,357202
1630937421755,64257,370440,357225
1630937421765,64231,370476,357256
1630937421775,64229,370404,357270
1630937421785,64200,370390,357209
1630937421795,64182,370365,357274
1630937421805,64177,370307,357237
1630937421815,64149,370261,357287
1630937421825,64127,370215,357263
1630937421835,64097,370191,357214
1630937421845,64073,370140,357250
1630937421855,64058,370115,357266
1630937421865,64031,370111,357271
1630937421875,64026,370087,357329
1630937421885,64001,370061,357287
1630937421895,63988,369993,357288
1630937421905,63956,370046,357300
1630937421915,63931,369939,357291
1630937421925,63891,369914,357277
1630937421935,63859,369939,357292
1630937421945,63830,369836,357251
1630937421955,63812,369878,357258
1630937421965,63799,369882,357290
1630937421975,63793,369843,357286
1630937421985,63783,369805,357288
1630937421995,63778,369800,357273
1630937422005,63760,369768,357301
1630937422015,63777,369802,357335
1630937422025,63763,369783,357345
1630937422035,63776,369853,357384
1630937422045,63774,369878,357389
1630937422055,63760,369853,357386
1630937422065,63746,369823,357384
1630937422075,63728,369814,357390
1630937422085,63724,369779,357358
1630937422095,63716,369839,357354
1630937422105,63719,369875,357364
1630937422115,63699,369808,357389
1630937422125,63687,369806,357399
1630937422135,63675,369798,357381
1630937422145,63659,369786,357398
1630937422155,63642,369730,357345
1630937422165,63628,369690,357348
1630937422175,63618,369701,357358
1630937422185,63607,369644,357317
1630937422195,63592,369645,357320
1630937422205,63583,369670,357280
1630937422215,63576,369628,357272
1630937422225,63557,369600,357269
1630937422235,63563,369608,357325
1630937422245,63540,369633,357268
1630937422255,63541,369646,357242
1630937422265,63533,369600,357328
1630937422275,63543,369636,357327
1630937422285,63552,369647,357306
1630937422295,63546,369716,357335
1630937422305,63553,369634,357337
1630937422315,63559,369687,357337
1630937422325,63577,369728,357392
1630937422335,63596,369720,357361
1630937422345,63603,369739,357395
1630937422355,63612,369774,357432
1630937422365,63592,369756,357425
1630937422375,63613,369826,357447
1630937422385,63609,369812,357477
1630937422395,63633,369845,357497
1630937422405,63647,369906,357469
1630937422415,63644,369872,357517
1630937422425,63643,369957,357550
1630937422435,63654,369934,357559
1630937422445,63661,369960,357570
1630937422455,63676,369981,357582
1630937422465,63683,369967,357589
1630937422475,63691,369955,357605
1630937422485,63697,370003,357628
1630937422495,63723,370020,357621
1630937422505,63737,370065,357645
1630937422515,63744,370113,357682
1630937422525,63763,370097,357711
1630937422535,63781,370177,357714
1630937422545,63803,370184,357795
1630937422555,63823,370222,357785
1630937422565,63839,370223,357865
1630937422575,63873,370293,357883
1630937422585,63897,370316,357922
1630937422595,63919,370318,357942
1630937422605,63906,370286,357995
1630937422615,63906,370256,358024
1630937422625,63902,370266,358028
1630937422635,63881,370233,357995
1630937422645,63861,370197,358018
1630937422655,63853,370131,358014
1630937422665,63846,370204,358044
1630937422675,63830,370129,358051
1630937422685,63809,370126,358050
1630937422695,63820,370131,358097
1630937422705,63804,370115,358078
1630937422715,63780,370105,358085
1630937422725,63741,370086,358065
1630937422735,63711,370020,358040
1630937422745,63671,369991,358027
1630937422755,63648,369897,357994
1630937422765,63633,369946,358032
1630937422775,63610,369943,358045
1630937422785,63593,369871,358036
1630937422795,63579,369799,358008
1630937422805,63538,369817,357995
1630937422815,63534,369745,358004
1630937422825,63513,369676,357998
1630937422835,63475,369628,357960
1630937422845,63471,369672,357975
1630937422855,63453,369651,357994
1630937422865,63462,369597,357987
1630937422875,63461,369606,358011
1630937422885,63460,369571,358055
1630937422895,63482,369661,358123
1630937422905,63494,369623,358109
1630937422915,63481,369597,358186
1630937422925,63562,369777,358321
1630937422935,63583,369736,358319
1630937422945,63647,369901,358476
1630937422955,63712,369906,358566
1630937422965,63752,369984,358731
1630937422975,63854,370035,358798
1630937422985,63914,370118,358902
1630937422995,63977,370201,358964
1630937423005,64049,370192,359083
1630937423015,64082,370256,359113
1630937423025,64112,370338,359186
1630937423035,64168,370305,359245
1630937423045,64189,370337,359230
1630937423055,64188,370371,359298
1630937423065,64240,370358,359351
1630937423075,64257,370368,359366
1630937423085,64283,370390,359421
1630937423095,64309,370434,359426
1630937423105,64327,370401,359458
1630937423115,64356,370463,359552
1630937423125,64390,370510,359565
1630937423135,64414,370496,359615
1630937423145,64445,370546,359635
1630937423155,64478,370563,359684
1630937423165,64515,370611,359761
1630937423175,64552,370658,359840
1630937423185,64583,370731,359838
1630937423195,64611,370727,359886
1630937423205,64654,370796,359959
1630937423215,64684,370770,360018
1630937423225,64705,370836,360015
1630937423235,64735,370876,360117
1630937423245,64770,370923,360129
1630937423255,64788,370942,360204
1630937423265,64813,370946,360211
1630937423275,64842,371029,360266
1630937423285,64861,371069,360280
1630937423295,64892,371089,360353
1630937423305,64924,371071,360343
1630937423315,64930,371177,360358
1630937423325,64950,371156,360388
1630937423335,64969,371221,360431
1630937423345,64993,371262,360379
1630937423355,65002,371216,360430
1630937423365,65009,371362,360444
1630937423375,65023,371309,360435
1630937423385,65039,371333,360439
1630937423395,65065,371344,360480
1630937423405,65103,371334,360557
1630937423415,65126,371374,360594
1630937423425,65143,371391,360576
1630937423435,65151,371409,360615
1630937423445,65142,371327,360588
1630937423455,65124,371269,360601
1630937423465,65117,371211,360571
1630937423475,65062,371247,360497
1630937423485,65061,371119,360471
1630937423495,65026,371124,360458
1630937423505,65015,371074,360425
1630937423515,65000,371004,360414
1630937423525,64968,371032,360414
1630937423535,64955,370933,360386
1630937423545,64948,370951,360368
1630937423555,64921,370936,360386
1630937423565,64906,370850,360309
1630937423575,64891,370861,360308
1630937423585,64879,370795,360276
1630937423595,64872,370789,360295
1630937423605,64840,370680,360247
1630937423615,64824,370642,360212
1630937423625,64795,370705,360192
1630937423635,64778,370631,360164
1630937423645,64748,370544,360078
1630937423655,64723,370495,360049
1630937423665,64693,370500,360024
1630937423675,64676,370495,359981
1630937423685,64658,370436,359950
1630937423695,64649,370391,359904
1630937423705,64616,370361,359849
1630937423715,64586,370365,359820
1630937423725,64566,370304,359780
1630937423735,64554,370330,359746
1630937423745,64536,370258,359761
1630937423755,64522,370247,359706
1630937423765,64506,370259,359635
1630937423775,64501,370231,359649
1630937423785,64508,370217,359629
1630937423795,64501,370255,359627
1630937423805,64507,370200,359636
1630937423815,64519,370249,359607
1630937423825,64523,370198,359663
1630937423835,64541,370267,359634
1630937423845,64546,370299,359676
1630937423855,64540,370324,359652
1630937423865,64561,370314,359672
1630937423875,64572,370307,359656
1630937423885,64580,370375,359684
1630937423895,64608,370405,359700
1630937423905,64635,370414,359736
1630937423915,64667,370461,359768
1630937423925,64694,370526,359751
1630937423935,64715,370543,359801
1630937423945,64738,370600,359878
1630937423955,64798,370649,359880
1630937423965,64829,370726,359941
1630937423975,64862,370786,359977
1630937423985,64885,370838,360040
1630937423995,64928,370935,360063
1630937424005,64961,370960,360148
1630937424015,64991,370992,360158
1630937424025,65022,371024,360220
1630937424035,65045,371082,360234
1630937424045,65072,371084,360265
1630937424055,65106,371126,360284
1630937424065,65140,371213,360365
1630937424075,65169,371159,360358
1630937424085,65196,371204,360441
1630937424095,65214,371277,360448
1630937424105,65230,371223,360517
1630937424115,65260,371245,360482
1630937424125,65271,371297,360537
1630937424135,65311,371302,360510
1630937424145,65305,371311,360509
1630937424155,65308,371274,360506
1630937424165,65294,371290,360485
1630937424175,65309,371350,360487
1630937424185,65319,371282,360507
1630937424195,65312,371190,360441
1630937424205,65303,371263,360448
1630937424215,65305,371232,360388
1630937424225,65290,371251,360407
1630937424235,65296,371275,360361
1630937424245,65303,371213,360393
1630937424255,65305,371267,360368
1630937424265,65328,371225,360401
1630937424275,65356,371239,360408
1630937424285,65355,371242,360445
1630937424295,65377,371268,360444
1630937424305,65380,371159,360432
1630937424315,65384,371150,360456
1630937424325,65374,371147,360394
1630937424335,65364,371083,360462
1630937424345,65357,371052,360432
1630937424355,65350,371057,360389
1630937424365,65344,371012,360402
1630937424375,65343,370942,360344
1630937424385,65327,370970,360368
1630937424395,65342,370945,360365
1630937424405,65355,370962,360337
1630937424415,65368,370921,360390
1630937424425,65396,370995,360402
1630937424435,65411,370969,360419
1630937424445,65409,370924,360451
1630937424455,65407,370957,360442
1630937424465,65407,370907,360475
1630937424475,65398,370885,360378
1630937424485,65396,370902,360408
1630937424495,65388,370795,360398
1630937424505,65371,370811,360336
1630937424515,65359,370813,360314
1630937424525,65337,370733,360295
1630937424535,65325,370758,360350
1630937424545,65334,370788,360262
1630937424555,65333,370729,360294
1630937424565,65341,370752,360244
1630937424575,65336,370749,360294
1630937424585,65342,370706,360259
1630937424595,65338,370714,360265
1630937424605,65352,370767,360283
1630937424615,65343,370736,360256
1630937424625,65361,370730,360256
1630937424635,65359,370750,360264
1630937424645,65382,370718,360257
1630937424655,65380,370719,360296
1630937424665,65386,370714,360273
1630937424675,65406,370746,360264
1630937424685,65395,370782,360263
1630937424695,65408,370815,360267
1630937424705,65425,370798,360262
1630937424715,65438,370814,360286
1630937424725,65454,370800,360343
1630937424735,65458,370834,360297
1630937424745,65455,370840,360278
1630937424755,65478,370819,360294
1630937424765,65469,370800,360221
1630937424775,65491,370847,360232
1630937424785,65497,370881,360278
1630937424795,65516,370874,360291
1630937424805,65509,370921,360274
1630937424815,65536,370910,360286
1630937424825,65551,370883,360265
1630937424835,65559,370943,360307
1630937424845,65554,370978,360313
1630937424855,65569,370960,360312
1630937424865,65585,370974,360281
1630937424875,65603,371038,360284
1630937424885,65606,371004,360296
1630937424895,65611,371023,360308
1630937424905,65627,371036,360298
1630937424915,65662,371087,360246
1630937424925,65665,371063,360312
1630937424935,65657,371090,360285
1630937424945,65684,371099,360288
1630937424955,65698,371150,360302
1630937424965,65708,371129,360298
1630937424975,65718,371198,360301
1630937424985,65750,371189,360320
1630937424995,65763,371216,360350
1630937425005,65776,371270,360405
1630937425015,65805,371259,360407
1630937425025,65815,371253,360376
1630937425035,65823,371281,360364
1630937425045,65847,371361,360389
1630937425055,65878,371364,360442
1630937425065,65896,371386,360424
1630937425075,65918,371462,360431
1630937425085,65943,371509,360450
1630937425095,65976,371550,360502
1630937425105,65995,371572,360522
1630937425115,66019,371634,360599
1630937425125,66069,371682,360625
1630937425135,66124,371699,360659
1630937425145,66132,371700,360692
1630937425155,66168,371749,360748
1630937425165,66180,371750,360780
1630937425175,66197,371672,360745
1630937425185,66200,371728,360819
1630937425195,66212,371726,360818
1630937425205,66225,371668,360760
1630937425215,66227,371753,360818
1630937425225,66241,371742,360804
1630937425235,66258,371745,360851
1630937425245,66261,371732,360829
1630937425255,66277,371745,360834
1630937425265,66277,371774,360815
1630937425275,66273,371721,360803
1630937425285,66272,371703,360833
1630937425295,66285,371714,360813
1630937425305,66287,371704,360789
1630937425315,66269,371679,360806
1630937425325,66291,371673,360858
1630937425335,66289,371674,360834
1630937425345,66288,371685,360830
1630937425355,66292,371714,360818
1630937425365,66290,371682,360852
1630937425375,66309,371756,360869
1630937425385,66312,371720,360882
1630937425395,66317,371780,360854
1630937425405,66334,371776,360850
1630937425415,66336,371831,360875
1630937425425,66361,371814,360907
1630937425435,66390,371845,360932
1630937425445,66401,371902,360963
1630937425455,66402,371895,360976
1630937425465,66423,371939,360945
1630937425475,66433,371934,360978
1630937425485,66444,371945,360952
1630937425495,66436,371993,360979
1630937425505,66450,371987,360978
1630937425515,66466,372013,361023
1630937425525,66481,372040,361017
1630937425535,66492,372016,361048
1630937425545,66500,372036,361041
1630937425555,66513,372114,361018
1630937425565,66529,372115,361078
1630937425575,66547,372186,361080
1630937425585,66553,372159,361065
1630937425595,66542,372139,361065
1630937425605,66569,372148,361080
1630937425615,66573,372189,361090
1630937425625,66577,372190,361081
1630937425635,66585,372239,361078
1630937425645,66578,372180,361049
1630937425655,66578,372211,361064
1630937425665,66576,372266,361069
1630937425675,66583,372205,361041
1630937425685,66590,372255,361048
1630937425695,66597,372317,361041
1630937425705,66592,372252,361039
1630937425715,66600,372314,361073
1630937425725,66604,372356,361003
1630937425735,66621,372294,361010
1630937425745,66625,372346,361005
1630937425755,66611,372341,361057
1630937425765,66638,372392,361070
1630937425775,66645,372392,361029
1630937425785,66656,372375,361062
1630937425795,66654,372398,361070
1630937425805,66662,372469,361020
1630937425815,66668,372508,361054
1630937425825,66682,372495,361051
1630937425835,66689,372542,361017
1630937425845,66694,372526,361062
1630937425855,66691,372527,361027
1630937425865,66698,372568,361064
1630937425875,66710,372580,361061
1630937425885,66741,372622,361048
1630937425895,66743,372592,361040
1630937425905,66762,372697,361105
1630937425915,66802,372771,361100
1630937425925,66810,372744,361205
1630937425935,66866,372820,361193
1630937425945,66899,372860,361243
1630937425955,66921,372816,361307
1630937425965,66926,372890,361308
1630937425975,66951,372909,361363
1630937425985,66950,372927,361367
1630937425995,66951,372917,361309
1630937426005,66969,372943,361318
1630937426015,67004,373043,361367
1630937426025,67019,373001,361408
1630937426035,67015,373061,361380
1630937426045,67021,373062,361355
1630937426055,67023,373093,361390
1630937426065,67013,373062,361339
1630937426075,66995,373051,361322
1630937426085,66987,373042,361307
1630937426095,66955,373080,361267
1630937426105,66932,373062,361234
1630937426115,66907,373025,361223
1630937426125,66890,372987,361180
1630937426135,66858,372934,361116
1630937426145,66810,372972,361065
1630937426155,66767,372879,361041
1630937426165,66733,372774,360937
1630937426175,66685,372755,360876
1630937426185,66636,372692,360785
1630937426195,66598,372678,360760
1630937426205,66557,372599,360692
1630937426215,66519,372564,360629
1630937426225,66474,372504,360548
1630937426235,66430,372421,360446
1630937426245,66387,372343,360394
1630937426255,66336,372290,360391
1630937426265,66302,372270,360292
1630937426275,66289,372153,360285
1630937426285,66255,372224,360261
1630937426295,66241,372164,360215
1630937426305,66217,372212,360161
1630937426315,66206,372182,360185
1630937426325,66210,372191,360164
1630937426335,66194,372118,360103
1630937426345,66176,372162,360110
1630937426355,66168,372135,360070
1630937426365,66166,372105,360078
1630937426375,66152,372181,360037
1630937426385,66147,372159,360008
1630937426395,66144,372158,360018
1630937426405,66122,372160,359953
1630937426415,66115,372145,359959
1630937426425,66103,372116,359877
1630937426435,66089,372103,359885
1630937426445,66072,372144,359863
1630937426455,66056,372168,359844
1630937426465,66040,372135,359812
1630937426475,66031,372084,359772
1630937426485,66024,372178,359794
1630937426495,66028,372110,359754
1630937426505,66020,372129,359774
1630937426515,66023,372120,359799
1630937426525,66027,372133,359765
1630937426535,66029,372174,359762
1630937426545,66038,372136,359804
1630937426555,66054,372191,359796
1630937426565,66049,372195,359773
1630937426575,66068,372207,359794
1630937426585,66074,372226,359813
1630937426595,66088,372259,359852
1630937426605,66113,372348,359870
1630937426615,66132,372337,359889
1630937426625,66153,372378,359916
1630937426635,66183,372396,359931
1630937426645,66206,372475,359956
1630937426655,66221,372529,360022
1630937426665,66241,372547,360053
1630937426675,66267,372636,360063
1630937426685,66292,372647,360128
1630937426695,66302,372682,360115
1630937426705,66355,372752,360177
1630937426715,66393,372786,360284
1630937426725,66433,372893,360321
1630937426735,66490,372868,360408
1630937426745,66506,372938,360441
1630937426755,66534,372957,360526
1630937426765,66558,372983,360598
1630937426775,66547,373029,360568
1630937426785,66554,373058,360546
1630937426795,66532,373012,360578
1630937426805,66508,372936,360578
1630937426815,66500,372995,360549
1630937426825,66477,372993,360561
1630937426835,66458,372976,360561
1630937426845,66427,372920,360551
1630937426855,66430,372918,360569
1630937426865,66408,372883,360550
1630937426875,66400,372895,360540
1630937426885,66383,372824,360588
1630937426895,66378,372904,360641
1630937426905,66344,372839,360609
1630937426915,66327,372745,360623
1630937426925,66307,372776,360594
1630937426935,66285,372679,360573
1630937426945,66262,372675,360590
1630937426955,66251,372582,360612
1630937426965,66221,372639,360630
1630937426975,66194,372591,360582
1630937426985,66175,372479,360617
1630937426995,66165,372495,360663
1630937427005,66142,372449,360640
1630937427015,66116,372395,360677
1630937427025,66122,372383,360713
1630937427035,66104,372320,360697
1630937427045,66080,372245,360730
1630937427055,66066,372306,360749
1630937427065,66073,372226,360774
1630937427075,66068,372207,360799
1630937427085,66065,372211,360819
1630937427095,66063,372203,360838
1630937427105,66066,372171,360885
1630937427115,66054,372197,360898
1630937427125,66067,372192,360901
1630937427135,66069,372186,360959
1630937427145,66079,372208,361009
1630937427155,66078,372160,361059
1630937427165,66083,372185,361044
1630937427175,66082,372169,361087
1630937427185,66080,372205,361152
1630937427195,66120,372254,361169
1630937427205,66144,372230,361218
1630937427215,66142,372252,361238
1630937427225,66148,372321,361262
1630937427235,66153,372306,361297
1630937427245,66160,372378,361309
1630937427255,66169,372328,361347
1630937427265,66189,372399,361406
1630937427275,66211,372357,361483
1630937427285,66228,372427,361512
1630937427295,66241,372431,361559
1630937427305,66245,372416,361625
1630937427315,66260,372415,361629
1630937427325,66269,372469,361660
1630937427335,66265,372387,361639
1630937427345,66260,372419,361678
1630937427355,66259,372443,361742
1630937427365,66267,372474,361757
1630937427375,66279,372492,361794
1630937427385,66295,372581,361835
1630937427395,66320,372594,361883
1630937427405,66350,372727,361941
1630937427415,66391,372768,362016
1630937427425,66421,372888,362095
1630937427435,66474,372950,362144
1630937427445,66492,372971,362274
1630937427455,66536,373091,362343
1630937427465,66580,373099,362415
1630937427475,66624,373193,362504
1630937427485,66655,373258,362600
1630937427495,66679,373304,362581
1630937427505,66698,373282,362650
1630937427515,66714,373364,362695
1630937427525,66742,373341,362778
1630937427535,66754,373315,362818
1630937427545,66751,373341,362857
1630937427555,66742,373398,362840
1630937427565,66722,373307,362840
1630937427575,66694,373314,362775
1630937427585,66658,373262,362772
1630937427595,66624,373186,362772
1630937427605,66577,373125,362746
1630937427615,66541,373020,362753
1630937427625,66471,372941,362746
1630937427635,66440,372884,362648
1630937427645,66395,372794,362610
1630937427655,66355,372735,362607
1630937427665,66327,372691,362564
1630937427675,66262,372588,362513
1630937427685,66220,372500,362494
1630937427695,66199,372465,362482
1630937427705,66177,372373,362516
1630937427715,66141,372335,362479
1630937427725,66115,372273,362475
1630937427735,66067,372161,362455
1630937427745,66027,372139,362384
1630937427755,65982,372040,362415
1630937427765,65952,371976,362353
1630937427775,65904,372016,362324
1630937427785,65846,371953,362230
1630937427795,65798,371897,362203
1630937427805,65748,371857,362123
1630937427815,65667,371741,362044
1630937427825,65590,371562,361914
1630937427835,65502,371546,361822
1630937427845,65425,371349,361727
1630937427855,65351,371261,361586
1630937427865,65266,371117,361483
1630937427875,65191,370989,361361
1630937427885,65084,370955,361241
1630937427895,64985,370776,361112
1630937427905,64900,370664,360950
1630937427915,64812,370534,360895
1630937427925,64734,370460,360742
1630937427935,64651,370362,360660
1630937427945,64551,370228,360506
1630937427955,64475,370139,360446
1630937427965,64394,370071,360282
1630937427975,64327,370010,360183
1630937427985,64263,369989,360061
1630937427995,64225,369937,360042
1630937428005,64205,369895,359928
1630937428015,64157,369898,359933
1630937428025,64146,369957,359909
1630937428035,64139,369856,359881
1630937428045,64127,369917,359833
1630937428055,64100,369892,359757
1630937428065,64104,369875,359774
1630937428075,64091,369874,359744
1630937428085,64056,369897,359695
1630937428095,64007,369816,359595
1630937428105,63970,369793,359588
1630937428115,63922,369789,359483
1630937428125,63902,369783,359411
1630937428135,63869,369767,359361
1630937428145,63839,369757,359342
1630937428155,63842,369734,359308
1630937428165,63817,369782,359249
1630937428175,63789,369734,359234
1630937428185,63781,369760,359168
1630937428195,63770,369759,359165
1630937428205,63760,369754,359126
1630937428215,63757,369789,359108
1630937428225,63752,369836,359093
1630937428235,63754,369809,359095
1630937428245,63733,369780,359084
1630937428255,63713,369784,359084
1630937428265,63700,369750,359015
1630937428275,63675,369742,358971
1630937428285,63636,369768,358867
1630937428295,63609,369701,358828
1630937428305,63588,369731,358787
1630937428315,63566,369724,358752
1630937428325,63573,369739,358751
1630937428335,63575,369741,358724
1630937428345,63595,369803,358750
1630937428355,63589,369813,358772
1630937428365,63611,369803,358773
1630937428375,63626,369880,358823
1630937428385,63633,369851,358845
1630937428395,63623,369827,358831
1630937428405,63607,369766,358847
1630937428415,63583,369776,358801
1630937428425,63558,369772,358818
1630937428435,63534,369762,358769
1630937428445,63503,369714,358785
1630937428455,63477,369731,358702
1630937428465,63455,369661,358700
1630937428475,63436,369644,358628
1630937428485,63413,369596,358641
1630937428495,63407,369540,358619
1630937428505,63389,369530,358614
1630937428515,63383,369566,358587
1630937428525,63371,369561,358624
1630937428535,63356,369477,358586
1630937428545,63356,369481,358654
1630937428555,63353,369459,358639
1630937428565,63354,369474,358657
1630937428575,63358,369473,358674
1630937428585,63344,369445,358692
1630937428595,63346,369475,358674
1630937428605,63344,369449,358724
1630937428615,63353,369512,358744
1630937428625,63348,369489,358713
1630937428635,63366,369505,358815
1630937428645,63392,369492,358821
1630937428655,63386,369524,358812
1630937428665,63426,369474,358875
1630937428675,63418,369529,358887
1630937428685,63454,369584,358940
1630937428695,63466,369609,358963
1630937428705,63480,369666,358966
1630937428715,63485,369632,359008
1630937428725,63514,369659,359041
1630937428735,63513,369672,359045
1630937428745,63522,369668,359041
1630937428755,63529,369676,359093
1630937428765,63537,369698,359071
1630937428775,63528,369739,359076
1630937428785,63542,369783,359056
1630937428795,63546,369714,359074
1630937428805,63566,369797,359100
1630937428815,63563,369765,359092
1630937428825,63594,369804,359093
1630937428835,63596,369837,359152
1630937428845,63607,369860,359146
1630937428855,63616,369842,359190
1630937428865,63636,369939,359214
1630937428875,63666,369955,359230
1630937428885,63685,370025,359256
1630937428895,63705,370046,359307
1630937428905,63722,370069,359296
1630937428915,63735,370097,359310
1630937428925,63755,370096,359320
1630937428935,63776,370151,359366
1630937428945,63796,370181,359419
1630937428955,63834,370247,359421
1630937428965,63849,370217,359437
1630937428975,63859,370246,359427
1630937428985,63868,370258,359438
1630937428995,63880,370324,359485
1630937429005,63890,370373,359433
1630937429015,63888,370283,359448
1630937429025,63866,370309,359424
1630937429035,63847,370316,359360
1630937429045,63848,370312,359310
1630937429055,63825,370275,359289
1630937429065,63793,370265,359198
1630937429075,63763,370174,359146
1630937429085,63695,370149,359037
1630937429095,63627,370014,358862
1630937429105,63564,370001,358750
1630937429115,63506,369864,358615
1630937429125,63438,369740,358481
1630937429135,63340,369664,358316
1630937429145,63251,369511,358146
1630937429155,63182,369419,357990
1630937429165,63130,369356,357929
1630937429175,63077,369266,357813
1630937429185,63030,369175,357685
1630937429195,62954,369094,357506
1630937429205,62883,368944,357409
1630937429215,62819,368909,357268
1630937429225,62757,368720,357178
1630937429235,62703,368655,357107
1630937429245,62642,368571,356993
1630937429255,62588,368460,356865
1630937429265,62533,368372,356749
1630937429275,62488,368318,356720
1630937429285,62448,368277,356644
1630937429295,62410,368208,356527
1630937429305,62372,368163,356460
1630937429315,62353,368150,356438
1630937429325,62316,368063,356387
1630937429335,62287,368023,356363
1630937429345,62261,367995,356274
1630937429355,62251,368027,356228
1630937429365,62242,367964,356258
1630937429375,62258,367986,356236
1630937429385,62244,367979,356232
1630937429395,62244,368024,356211
1630937429405,62263,367995,356214
1630937429415,62255,368040,356212
1630937429425,62268,368041,356211
1630937429435,62268,368058,356208
1630937429445,62262,368055,356201
1630937429455,62281,368036,356207
1630937429465,62300,368042,356209
1630937429475,62303,368054,356210
1630937429485,62334,368157,356290
1630937429495,62394,368108,356338
1630937429505,62429,368258,356374
1630937429515,62468,368286,356440
1630937429525,62497,368271,356506
1630937429535,62526,368356,356482
1630937429545,62537,368296,356486
1630937429555,62537,368333,356481
1630937429565,62548,368359,356516
1630937429575,62539,368334,356503
1630937429585,62566,368369,356518
1630937429595,62581,368399,356495
1630937429605,62605,368413,356530
1630937429615,62621,368461,356589
1630937429625,62652,368461,356547
1630937429635,62649,368444,356544
1630937429645,62659,368455,356557
1630937429655,62687,368432,356581
1630937429665,62721,368529,356641
1630937429675,62745,368591,356617
1630937429685,62754,368605,356662
1630937429695,62788,368633,356680
1630937429705,62807,368694,356696
1630937429715,62841,368735,356783
1630937429725,62886,368730,356810
1630937429735,62924,368813,356833
1630937429745,62966,368843,356934
1630937429755,63000,368931,356963
1630937429765,63040,368978,356986
1630937429775,63064,368976,357063
1630937429785,63115,368996,357102
1630937429795,63156,369009,357143
1630937429805,63191,369113,357193
1630937429815,63242,369207,357259
1630937429825,63293,369240,357339
1630937429835,63343,369271,357433
1630937429845,63411,369330,357532
1630937429855,63474,369508,357563
1630937429865,63512,369483,357669
1630937429875,63560,369560,357736
1630937429885,63599,369598,357770
1630937429895,63644,369667,357822
1630937429905,63689,369785,357903
1630937429915,63746,369795,357982
1630937429925,63782,369855,358008
1630937429935,63837,369967,358070
1630937429945,63859,369996,358116
1630937429955,63919,370075,358164
1630937429965,63953,370117,358237
1630937429975,64026,370152,358327
1630937429985,64061,370183,358404
1630937429995,64107,370249,358447
1630937430005,64143,370322,358519
1630937430015,64177,370311,358542
1630937430025,64207,370393,358618
1630937430035,64248,370471,358654
1630937430045,64292,370511,358717
1630937430055,64339,370540,358753
1630937430065,64387,370657,358852
1630937430075,64438,370737,358919
1630937430085,64488,370816,358984
1630937430095,64545,370857,359064
1630937430105,64572,370883,359095
1630937430115,64604,370925,359121
1630937430125,64649,370947,359218
1630937430135,64683,371032,359274
1630937430145,64709,371041,359266
1630937430155,64737,371048,359383
1630937430165,64772,371134,359417
1630937430175,64808,371109,359454
1630937430185,64836,371178,359508
1630937430195,64867,371231,359512
1630937430205,64874,371186,359544
1630937430215,64900,371241,359605
1630937430225,64926,371300,359599
1630937430235,64954,371366,359632
1630937430245,64973,371367,359671
1630937430255,64982,371389,359667
1630937430265,65035,371419,359711
1630937430275,65031,371435,359724
1630937430285,65047,371447,359744
1630937430295,65076,371420,359779
1630937430305,65085,371434,359813
1630937430315,65095,371490,359789
1630937430325,65113,371489,359825
1630937430335,65122,371504,359797
1630937430345,65137,371495,359842
1630937430355,65150,371537,359851
1630937430365,65169,371559,359871
1630937430375,65179,371565,359919
1630937430385,65195,371575,359870
1630937430395,65214,371629,359872
1630937430405,65221,371630,359848
1630937430415,65230,371690,359873
1630937430425,65241,371607,359873
1630937430435,65246,371633,359868
1630937430445,65260,371667,359871
1630937430455,65275,371711,359860
1630937430465,65276,371700,359897
1630937430475,65270,371718,359880
1630937430485,65281,371744,359885
1630937430495,65286,371741,359929
1630937430505,65294,371785,359904
1630937430515,65301,371774,359913
1630937430525,65324,371796,359925
1630937430535,65338,371780,359906
1630937430545,65350,371834,359912
1630937430555,65368,371859,359936
1630937430565,65383,371849,359938
1630937430575,65397,371862,359936
1630937430585,65416,371861,359964
1630937430595,65418,371930,359956
1630937430605,65434,371975,359919
1630937430615,65435,371949,359955
1630937430625,65467,371977,359982
1630937430635,65484,371966,359975
1630937430645,65495,372004,360010
1630937430655,65501,372062,360041
1630937430665,65523,372123,360052
1630937430675,65542,372071,360051
1630937430685,65561,372108,360070
1630937430695,65588,372185,360067
1630937430705,65605,372230,360104
1630937430715,65627,372227,360119
1630937430725,65649,372273,360148
1630937430735,65671,372272,360132
1630937430745,65689,372315,360173
1630937430755,65701,372364,360198
1630937430765,65728,372335,360177
1630937430775,65743,372377,360226
1630937430785,65772,372409,360272
1630937430795,65801,372403,360298
1630937430805,65834,372441,360307
1630937430815,65852,372486,360387
1630937430825,65882,372487,360422
1630937430835,65882,372447,360408
1630937430845,65899,372457,360458
1630937430855,65906,372458,360434
1630937430865,65911,372388,360462
1630937430875,65913,372426,360457
1630937430885,65929,372405,360502
1630937430895,65936,372450,360461
1630937430905,65939,372338,360504
1630937430915,65953,372377,360528
1630937430925,65958,372359,360504
1630937430935,65970,372388,360487
1630937430945,65965,372346,360527
1630937430955,65972,372365,360515
1630937430965,65969,372377,360514
1630937430975,65978,372323,360524
1630937430985,65981,372302,360553
1630937430995,65976,372293,360573
1630937431005,65981,372246,360508
1630937431015,65974,372273,360552
1630937431025,65963,372212,360559
1630937431035,65967,372200,360512
1630937431045,65975,372223,360568
1630937431055,65980,372244,360571
1630937431065,65968,372191,360548
1630937431075,65985,372234,360571
1630937431085,65976,372256,360577
1630937431095,65987,372220,360584
1630937431105,65988,372186,360584
1630937431115,65992,372259,360604
1630937431125,66007,372235,360615
1630937431135,66011,372236,360611
1630937431145,66001,372241,360645
1630937431155,66022,372300,360668
1630937431165,66030,372262,360684
1630937431175,66036,372271,360665
1630937431185,66033,372308,360713
1630937431195,66048,372293,360671
1630937431205,66057,372332,360700
1630937431215,66063,372289,360727
1630937431225,66075,372334,360736
1630937431235,66079,372353,360740
1630937431245,66095,372337,360755
1630937431255,66099,372354,360810
1630937431265,66124,372400,360767
1630937431275,66119,372325,360799
1630937431285,66131,372359,360792
1630937431295,66134,372369,360776
1630937431305,66155,372401,360833
1630937431315,66173,372437,360850
1630937431325,66194,372476,360877
1630937431335,66194,372542,360878
1630937431345,66202,372506,360891
1630937431355,66206,372499,360923
1630937431365,66226,372573,360950
1630937431375,66239,372641,360912
1630937431385,66249,372591,360964
1630937431395,66275,372651,360968
1630937431405,66275,372658,360988
1630937431415,66292,372686,360975
1630937431425,66323,372666,361017
1630937431435,66334,372709,361065
1630937431445,66349,372799,361053
1630937431455,66347,372782,361066
1630937431465,66386,372794,361103
1630937431475,66408,372878,361122
1630937431485,66434,372887,361155
1630937431495,66429,372956,361153
1630937431505,66446,372938,361197
1630937431515,66476,372995,361207
1630937431525,66491,372972,361207
1630937431535,66499,373072,361275
1630937431545,66526,373063,361263
1630937431555,66545,373094,361278
1630937431565,66561,373155,361332
1630937431575,66586,373203,361365
1630937431585,66611,373165,361355
1630937431595,66631,373247,361368
1630937431605,66634,373278,361443
1630937431615,66677,373290,361473
1630937431625,66699,373332,361486
1630937431635,66720,373308,361531
1630937431645,66750,373373,361623
1630937431655,66758,373315,361601
1630937431665,66754,373376,361654
1630937431675,66749,373278,361669
1630937431685,66749,373294,361668
1630937431695,66752,373267,361642
1630937431705,66732,373261,361661
1630937431715,66741,373309,361670
1630937431725,66712,373250,361652
1630937431735,66689,373155,361660
1630937431745,66671,373186,361653
1630937431755,66649,373148,361626
1630937431765,66634,373193,361613
1630937431775,66608,373110,361600
1630937431785,66583,373052,361619
1630937431795,66565,373062,361589
1630937431805,66535,372937,361521
1630937431815,66521,372927,361531
1630937431825,66494,372966,361498
1630937431835,66471,372922,361514
1630937431845,66443,372831,361523
1630937431855,66421,372832,361457
1630937431865,66394,372845,361485
1630937431875,66388,372850,361466
1630937431885,66365,372878,361510
1630937431895,66354,372801,361463
1630937431905,66353,372792,361422
1630937431915,66332,372798,361408
1630937431925,66325,372738,361472
1630937431935,66308,372756,361420
1630937431945,66293,372716,361429
1630937431955,66283,372730,361424
1630937431965,66255,372722,361413
1630937431975,66225,372643,361404
1630937431985,66213,372660,361389
1630937431995,66197,372635,361379
1630937432005,66185,372590,361363
1630937432015,66165,372607,361413
1630937432025,66152,372595,361369
1630937432035,66149,372548,361369
1630937432045,66128,372565,361364
1630937432055,66115,372587,361333
1630937432065,66103,372564,361372
1630937432075,66096,372528,361345
1630937432085,66080,372517,361343
1630937432095,66072,372485,361277
1630937432105,66067,372525,361321
1630937432115,66064,372532,361369
1630937432125,66060,372508,361338
1630937432135,66064,372584,361322
1630937432145,66056,372544,361368
1630937432155,66051,372509,361355
1630937432165,66049,372556,361350
1630937432175,66038,372515,361408
1630937432185,66036,372519,361380
1630937432195,66044,372519,361379
1630937432205,66029,372600,361367
1630937432215,66028,372549,361371
1630937432225,66038,372520,361404
1630937432235,66019,372586,361335
1630937432245,66007,372516,361400
1630937432255,66007,372552,361348
1630937432265,66009,372539,361377
1630937432275,65995,372561,361293
1630937432285,65965,372589,361332
1630937432295,65948,372495,361298
1630937432305,65934,372551,361308
1630937432315,65925,372512,361275
1630937432325,65917,372529,361231
1630937432335,65894,372520,361200
1630937432345,65883,372528,361197
1630937432355,65865,372549,361157
1630937432365,65866,372517,361183
1630937432375,65853,372464,361162
1630937432385,65859,372478,361118
1630937432395,65846,372477,361128
1630937432405,65855,372484,361157
1630937432415,65848,372464,361157
1630937432425,65835,372419,361198
1630937432435,65808,372404,361192
1630937432445,65784,372331,361142
1630937432455,65743,372303,361121
1630937432465,65693,372284,361094
1630937432475,65662,372224,361111
1630937432485,65618,372174,361088
1630937432495,65569,372122,361068
1630937432505,65545,372048,361084
1630937432515,65512,372031,361025
1630937432525,65493,371983,361044
1630937432535,65448,371965,361060
1630937432545,65414,371977,361056
1630937432555,65386,371844,361017
1630937432565,65332,371826,361035
1630937432575,65318,371769,360984
1630937432585,65272,371749,360983
1630937432595,65245,371708,360987
1630937432605,65198,371667,360970
1630937432615,65173,371619,361007
1630937432625,65137,371573,360959
1630937432635,65105,371578,360953
1630937432645,65074,371560,360963
1630937432655,65045,371502,360940
1630937432665,65027,371531,360952
1630937432675,65003,371520,360944
1630937432685,65000,371476,360953
1630937432695,64990,371466,361015
1630937432705,64962,371431,360977
1630937432715,64948,371413,361000
1630937432725,64921,371427,361067
1630937432735,64921,371397,361013
1630937432745,64907,371432,361010
1630937432755,64895,371369,361033
1630937432765,64877,371377,361025
1630937432775,64865,371406,361050
1630937432785,64860,371370,361056
1630937432795,64855,371413,361113
1630937432805,64839,371354,361120
1630937432815,64852,371402,361188
1630937432825,64843,371390,361152
1630937432835,64848,371433,361180
1630937432845,64855,371400,361185
1630937432855,64842,371466,361255
1630937432865,64859,371429,361250
1630937432875,64850,371433,361311
1630937432885,64843,371467,361315
1630937432895,64860,371468,361355
1630937432905,64866,371450,361400
1630937432915,64869,371530,361385
1630937432925,64888,371521,361415
1630937432935,64893,371562,361453
1630937432945,64884,371585,361489
1630937432955,64889,371546,361493
1630937432965,64901,371576,361518
1630937432975,64902,371555,361531
1630937432985,64922,371626,361564
1630937432995,64904,371595,361615
1630937433005,64934,371595,361543
1630937433015,64921,371646,361640
1630937433025,64944,371692,361643
1630937433035,64950,371656,361673
1630937433045,64942,371657,361650
1630937433055,64961,371792,361672
1630937433065,64957,371755,361696
1630937433075,64978,371758,361715
1630937433085,64965,371764,361742
1630937433095,64978,371738,361787
1630937433105,64970,371804,361772
1630937433115,64996,371749,361862
1630937433125,65004,371862,361789
1630937433135,65014,371802,361856
1630937433145,65019,371857,361870
1630937433155,65027,371866,361919
1630937433165,65037,371887,361875
1630937433175,65054,371938,361906
1630937433185,65055,371925,361874
1630937433195,65072,371949,361926
1630937433205,65080,371946,361975
1630937433215,65079,372024,361952
1630937433225,65103,372031,362032
1630937433235,65112,372056,362013
1630937433245,65130,372110,362047
1630937433255,65147,372083,362063
1630937433265,65151,372069,362077
1630937433275,65150,372078,362133
1630937433285,65151,372047,362132
1630937433295,65150,372047,362131
1630937433305,65133,371990,362145
1630937433315,65120,371989,362173
1630937433325,65092,371957,362152
1630937433335,65073,371949,362212
1630937433345,65051,371901,362166
1630937433355,65040,371875,362178
1630937433365,65041,371824,362209
1630937433375,65002,371821,362184
1630937433385,65012,371799,362223
1630937433395,64979,371747,362249
1630937433405,64977,371761,362231
1630937433415,64977,371709,362240
1630937433425,64940,371745,362235
1630937433435,64936,371701,362277
1630937433445,64919,371686,362278
1630937433455,64916,371645,362302
1630937433465,64900,371697,362308
1630937433475,64900,371681,362320
1630937433485,64890,371645,362339
1630937433495,64907,371612,362350
1630937433505,64899,371609,362394
1630937433515,64881,371626,362450
1630937433525,64904,371626,362427
1630937433535,64907,371678,362449
1630937433545,64940,371604,362483
1630937433555,64931,371688,362499
1630937433565,64943,371689,362567
1630937433575,64953,371718,362550
1630937433585,64953,371677,362593
1630937433595,64952,371718,362608
1630937433605,64958,371745,362642
1630937433615,64958,371700,362628
1630937433625,64965,371717,362684
1630937433635,64966,371753,362677
1630937433645,64971,371786,362720
1630937433655,64990,371711,362679
1630937433665,64983,371762,362746
1630937433675,65006,371771,362773
1630937433685,64988,371809,362797
1630937433695,65015,371811,362799
1630937433705,65017,371838,362833
1630937433715,65017,371855,362825
1630937433725,65015,371875,362803
1630937433735,65026,371821,362840
1630937433745,65036,371842,362863
1630937433755,65041,371904,362837
1630937433765,65056,371914,362888
1630937433775,65062,371934,362904
1630937433785,65070,371980,362924
1630937433795,65081,371984,362923
1630937433805,65113,372002,362948
1630937433815,65117,372026,363014
1630937433825,65132,372058,363007
1630937433835,65148,372070,363017
1630937433845,65160,372088,363007
1630937433855,65172,372095,363019
1630937433865,65183,372154,363087
1630937433875,65193,372128,363115
1630937433885,65204,372151,363127
1630937433895,65224,372218,363130
1630937433905,65250,372226,363174
1630937433915,65260,372226,363165
1630937433925,65273,372288,363157
1630937433935,65286,372277,363215
1630937433945,65298,372312,363192
1630937433955,65313,372330,363200
1630937433965,65326,372302,363242
1630937433975,65358,372350,363268
1630937433985,65365,372362,363293
1630937433995,65373,372416,363269
1630937434005,65394,372442,363274
1630937434015,65418,372415,363306
1630937434025,65429,372460,363328
1630937434035,65449,372525,363340
1630937434045,65458,372538,363348
1630937434055,65482,372585,363322
1630937434065,65502,372635,363373
1630937434075,65515,372663,363356
1630937434085,65532,372711,363416
1630937434095,65540,372655,363488
1630937434105,65578,372750,363493
1630937434115,65597,372782,363526
1630937434125,65633,372812,363523
1630937434135,65639,372874,363565
1630937434145,65663,372908,363541
1630937434155,65697,372936,363603
1630937434165,65718,372949,363602
1630937434175,65747,373003,363602
1630937434185,65775,373006,363651
1630937434195,65795,373097,363668
1630937434205,65832,373043,363748
1630937434215,65848,373071,363720
1630937434225,65865,372998,363752
1630937434235,65858,373034,363764
1630937434245,65870,372999,363747
1630937434255,65860,372988,363794
1630937434265,65863,372952,363754
1630937434275,65862,372969,363778
1630937434285,65860,372956,363791
1630937434295,65860,372953,363785
1630937434305,65860,372958,363777
1630937434315,65867,372949,363763
1630937434325,65844,372948,363762
1630937434335,65851,372943,363770
1630937434345,65853,372883,363735
1630937434355,65843,372844,363682
1630937434365,65840,372869,363738
1630937434375,65839,372835,363752
1630937434385,65828,372820,363710
1630937434395,65820,372811,363713
1630937434405,65823,372834,363709
1630937434415,65809,372853,363689
1630937434425,65827,372788,363676
1630937434435,65814,372841,363688
1630937434445,65822,372820,363672
1630937434455,65819,372828,363674
1630937434465,65844,372802,363642
1630937434475,65836,372804,363697
1630937434485,65853,372758,363697
1630937434495,65851,372812,363660
1630937434505,65876,372823,363681
1630937434515,65869,372868,363714
1630937434525,65865,372848,363713
1630937434535,65888,372865,363690
1630937434545,65889,372911,363681
1630937434555,65906,372897,363703
1630937434565,65916,372853,363744
1630937434575,65920,372923,363747
1630937434585,65929,372918,363737
1630937434595,65939,372937,363758
1630937434605,65950,372935,363752
1630937434615,65967,372976,363757
1630937434625,65982,373003,363755
1630937434635,65988,372950,363755
1630937434645,66001,372989,363789
1630937434655,66019,373037,363792
1630937434665,66029,373033,363789
1630937434675,66049,372997,363786
1630937434685,66062,373055,363793
1630937434695,66071,373053,363834
1630937434705,66080,373042,363776
1630937434715,66094,373099,363835
1630937434725,66105,373114,363809
1630937434735,66120,373211,363811
1630937434745,66120,373171,363801
1630937434755,66136,373217,363820
1630937434765,66159,373213,363859
1630937434775,66166,373231,363831
1630937434785,66193,373258,363868
1630937434795,66213,373237,363857
1630937434805,66231,373305,363875
1630937434815,66242,373336,363907
1630937434825,66265,373371,363924
1630937434835,66276,373370,363845
1630937434845,66293,373342,363923
1630937434855,66320,373426,363897
1630937434865,66329,373415,363901
1630937434875,66332,373449,363887
1630937434885,66351,373513,363921
1630937434895,66358,373568,363923
1630937434905,66381,373560,363919
1630937434915,66397,373572,363965
1630937434925,66407,373553,363932
1630937434935,66430,373576,363926
1630937434945,66449,373629,363933
1630937434955,66468,373634,363994
1630937434965,66480,373648,363955
1630937434975,66493,373692,363955
1630937434985,66500,373752,363972
1630937434995,66533,373700,363947
1630937435005,66530,373729,363967
1630937435015,66549,373767,363977
1630937435025,66578,373816,363968
1630937435035,66583,373811,363964
1630937435045,66601,373826,363965
1630937435055,66620,373833,363968
1630937435065,66637,373890,363972
1630937435075,66654,373891,364003
1630937435085,66669,373940,363982
1630937435095,66684,373965,364004
1630937435105,66698,373990,363987
1630937435115,66709,374006,363998
1630937435125,66719,374011,364016
1630937435135,66741,374024,363984
1630937435145,66765,374028,364002
1630937435155,66783,374105,364071
1630937435165,66808,374147,364044
1630937435175,66829,374106,364060
1630937435185,66854,374103,364088
1630937435195,66855,374045,364078
1630937435205,66876,374089,364056
1630937435215,66873,374070,364060
1630937435225,66884,374091,364085
1630937435235,66885,374100,364057
1630937435245,66892,374033,364073
1630937435255,66889,374076,364000
1630937435265,66900,374023,364019
1630937435275,66888,374046,364006
1630937435285,66897,374060,364011
1630937435295,66917,374010,363996
1630937435305,66905,373996,364017
1630937435315,66896,374013,363996
1630937435325,66906,374018,363989
1630937435335,66910,373960,363995
1630937435345,66900,374032,363940
1630937435355,66906,373973,363984
1630937435365,66906,374012,363950
1630937435375,66919,373994,363940
1630937435385,66900,373898,363899
1630937435395,66901,374001,363910
1630937435405,66906,373900,363847
1630937435415,66900,373948,363873
1630937435425,66909,373997,363869
1630937435435,66923,374009,363892
1630937435445,66930,373985,363859
1630937435455,66934,373966,363865
1630937435465,66929,373986,363812
1630937435475,66934,373988,363837
1630937435485,66951,373979,363885
1630937435495,66955,373990,363824
1630937435505,66967,373933,363825
1630937435515,66971,373997,363842
1630937435525,66973,374001,363833
1630937435535,66984,374004,363769
1630937435545,66974,374006,363831
1630937435555,66992,373970,363815
1630937435565,66999,374010,363804
1630937435575,66986,373970,363803
1630937435585,67001,373976,363812
1630937435595,67013,373982,363781
1630937435605,67026,374032,363775
1630937435615,67018,374033,363777
1630937435625,67050,374042,363779
1630937435635,67051,374033,363749
1630937435645,67045,374076,363763
1630937435655,67059,374069,363756
1630937435665,67068,374099,363771
1630937435675,67073,374123,363738
1630937435685,67082,374091,363751
1630937435695,67083,374158,363742
1630937435705,67091,374093,363722
1630937435715,67100,374114,363749
1630937435725,67109,374173,363746
1630937435735,67118,374177,363727
1630937435745,67120,374152,363747
1630937435755,67134,374226,363733
1630937435765,67163,374228,363723
1630937435775,67172,374261,363714
1630937435785,67176,374291,363720
1630937435795,67179,374271,363739
1630937435805,67196,374300,363720
1630937435815,67201,374271,363691
1630937435825,67218,374272,363679
1630937435835,67218,374312,363732
1630937435845,67234,374303,363722
1630937435855,67243,374379,363703
1630937435865,67255,374354,363727
1630937435875,67264,374303,363709
1630937435885,67276,374384,363708
1630937435895,67284,374378,363725
1630937435905,67300,374429,363692
1630937435915,67314,374439,363712
1630937435925,67323,374450,363715
1630937435935,67331,374507,363714
1630937435945,67341,374463,363706
1630937435955,67358,374497,363693
1630937435965,67351,374481,363719
1630937435975,67374,374602,363732
1630937435985,67390,374513,363696
1630937435995,67399,374581,363693
1630937436005,67402,374589,363716
1630937436015,67416,374558,363711
1630937436025,67423,374619,363724
1630937436035,67443,374578,363726
1630937436045,67461,374625,363691
1630937436055,67485,374686,363756
1630937436065,67494,374647,363801
1630937436075,67507,374636,363770
1630937436085,67517,374661,363779
1630937436095,67524,374626,363790
1630937436105,67536,374551,363769
1630937436115,67535,374635,363774
1630937436125,67523,374584,363730
1630937436135,67515,374584,363716
1630937436145,67525,374534,363725
1630937436155,67525,374537,363724
1630937436165,67504,374491,363681
1630937436175,67489,374489,363685
1630937436185,67512,374429,363675
1630937436195,67490,374453,363631
1630937436205,67470,374400,363659
1630937436215,67469,374389,363623
1630937436225,67441,374392,363598
1630937436235,67447,374372,363646
1630937436245,67426,374354,363606
1630937436255,67419,374293,363575
1630937436265,67403,374261,363548
1630937436275,67416,374266,363507
1630937436285,67402,374237,363513
1630937436295,67395,374210,363511
1630937436305,67381,374205,363476
1630937436315,67377,374214,363463
1630937436325,67360,374188,363415
1630937436335,67358,374244,363420
1630937436345,67339,374163,363398
1630937436355,67340,374210,363434
1630937436365,67329,374165,363382
1630937436375,67315,374181,363398
1630937436385,67311,374143,363408
1630937436395,67303,374134,363373
1630937436405,67314,374124,363372
1630937436415,67295,374121,363330
1630937436425,67301,374107,363320
1630937436435,67299,374080,363304
1630937436445,67289,374047,363290
1630937436455,67275,374136,363294
1630937436465,67270,374093,363261
1630937436475,67261,374075,363296
1630937436485,67262,374037,363277
1630937436495,67259,374074,363239
1630937436505,67253,374038,363218
1630937436515,67253,374082,363255
1630937436525,67239,374084,363181
1630937436535,67249,374046,363161
1630937436545,67244,374077,363133
1630937436555,67244,374106,363179
1630937436565,67243,374065,363143
1630937436575,67250,374097,363164
1630937436585,67243,374062,363130
1630937436595,67233,374084,363144
1630937436605,67240,374056,363130
1630937436615,67242,374055,363134
1630937436625,67233,374110,363133
1630937436635,67235,374083,363094
1630937436645,67233,374066,363112
1630937436655,67234,374089,363094
1630937436665,67228,374123,363066
1630937436675,67230,374058,363072
1630937436685,67243,374075,363036
1630937436695,67242,374122,363043
1630937436705,67239,374162,363061
1630937436715,67253,374117,363065
1630937436725,67256,374134,363076
1630937436735,67256,374133,363026
1630937436745,67252,374147,363032
1630937436755,67269,374166,363069
1630937436765,67262,374213,363054
1630937436775,67268,374189,363029
1630937436785,67278,374167,363034
1630937436795,67273,374202,363065
1630937436805,67282,374253,363050
1630937436815,67291,374231,363020
1630937436825,67286,374293,363027
1630937436835,67291,374263,363036
1630937436845,67285,374275,363050
1630937436855,67315,374298,363038
1630937436865,67330,374332,363011
1630937436875,67330,374327,363033
1630937436885,67328,374316,363023
1630937436895,67335,374375,363009
1630937436905,67331,374390,363021
1630937436915,67353,374353,363032
1630937436925,67351,374339,362999
1630937436935,67353,374421,362986
1630937436945,67355,374441,362987
1630937436955,67367,374348,363014
1630937436965,67361,374439,363004
1630937436975,67363,374498,363055
1630937436985,67371,374459,363008
1630937436995,67384,374389,363001
1630937437005,67397,374540,363027
1630937437015,67397,374529,363023
1630937437025,67416,374468,363027
1630937437035,67431,374491,363042
1630937437045,67436,374380,363053
1630937437055,67420,374398,363081
1630937437065,67410,374353,363045
1630937437075,67372,374333,363034
1630937437085,67365,374286,362998
1630937437095,67334,374271,362967
1630937437105,67312,374238,363010
1630937437115,67294,374204,362968
1630937437125,67276,374181,362959
1630937437135,67240,374149,362937
1630937437145,67223,374135,362911
1630937437155,67203,374065,362878
1630937437165,67169,374035,362869
1630937437175,67138,374013,362878
1630937437185,67099,373898,362780
1630937437195,67068,373897,362811
1630937437205,67025,373862,362805
1630937437215,67008,373858,362770
1630937437225,66974,373791,362771
1630937437235,66941,373735,362725
1630937437245,66899,373696,362673
1630937437255,66891,373699,362654
1630937437265,66862,373689,362638
1630937437275,66838,373636,362632
1630937437285,66803,373639,362628
1630937437295,66788,373609,362608
1630937437305,66773,373643,362589
1630937437315,66756,373577,362614
1630937437325,66725,373549,362578
1630937437335,66701,373573,362583
1630937437345,66691,373491,362587
1630937437355,66679,373506,362600
1630937437365,66654,373487,362572
1630937437375,66643,373487,362536
1630937437385,66628,373479,362542
1630937437395,66624,373471,362542
1630937437405,66608,373424,362529
1630937437415,66592,373462,362550
1630937437425,66579,373462,362511
1630937437435,66558,373406,362559
1630937437445,66555,373452,362508
1630937437455,66534,373395,362502
1630937437465,66520,373416,362486
1630937437475,66511,373393,362516
1630937437485,66495,373340,362531
1630937437495,66485,373454,362532
1630937437505,66484,373351,362524
1630937437515,66484,373438,362499
1630937437525,66487,373474,362531
1630937437535,66479,373377,362532
1630937437545,66472,373437,362508
1630937437555,66475,373389,362510
1630937437565,66464,373420,362534
1630937437575,66462,373442,362554
1630937437585,66445,373398,362563
1630937437595,66448,373448,362560
1630937437605,66459,373448,362540
1630937437615,66454,373419,362537
1630937437625,66443,373436,362528
1630937437635,66454,373484,362576
1630937437645,66438,373469,362567
1630937437655,66437,373471,362556
1630937437665,66433,373455,362546
1630937437675,66428,373433,362491
1630937437685,66432,373528,362536
1630937437695,66419,373482,362510
1630937437705,66431,373471,362517
1630937437715,66426,373512,362538
1630937437725,66424,373516,362528
1630937437735,66424,373540,362528
1630937437745,66419,373497,362542
1630937437755,66430,373548,362509
1630937437765,66426,373581,362562
1630937437775,66422,373572,362505
1630937437785,66414,373532,362508
1630937437795,66433,373591,362534
1630937437805,66435,373527,362589
1630937437815,66436,373570,362569
1630937437825,66443,373638,362573
1630937437835,66444,373630,362584
1630937437845,66450,373630,362592
1630937437855,66458,373674,362607
1630937437865,66476,373671,362622
1630937437875,66484,373685,362621
1630937437885,66472,373669,362672
1630937437895,66491,373760,362650
1630937437905,66500,373784,362659
1630937437915,66506,373711,362689
1630937437925,66501,373772,362663
1630937437935,66520,373790,362697
1630937437945,66536,373749,362692
1630937437955,66540,373846,362710
1630937437965,66533,373871,362711
1630937437975,66538,373816,362731
1630937437985,66560,373895,362688
1630937437995,66573,373846,362767
1630937438005,66577,373852,362776
1630937438015,66578,373850,362793
1630937438025,66592,373826,362844
1630937438035,66573,373782,362801
1630937438045,66568,373718,362843
1630937438055,66532,373698,362784
1630937438065,66506,373683,362830
1630937438075,66457,373670,362789
1630937438085,66435,373592,362743
1630937438095,66395,373594,362807
1630937438105,66359,373511,362761
1630937438115,66332,373499,362741
1630937438125,66296,373506,362743
1630937438135,66266,373450,362748
1630937438145,66254,373437,362757
1630937438155,66220,373315,362749
1630937438165,66184,373340,362728
1630937438175,66153,373280,362774
1630937438185,66146,373280,362709
1630937438195,66107,373194,362770
1630937438205,66074,373235,362719
1630937438215,66053,373123,362758
1630937438225,66033,373138,362743
1630937438235,65995,373107,362754
1630937438245,65978,373066,362769
1630937438255,65955,373110,362751
1630937438265,65940,373065,362705
1630937438275,65918,373050,362745
1630937438285,65905,373059,362735
1630937438295,65901,373053,362773
1630937438305,65898,373048,362735
1630937438315,65863,373028,362723
1630937438325,65859,372989,362716
1630937438335,65856,373002,362763
1630937438345,65838,373007,362774
1630937438355,65834,372971,362761
1630937438365,65810,372942,362740
1630937438375,65815,372931,362779
1630937438385,65795,372972,362778
1630937438395,65783,372908,362804
1630937438405,65773,372980,362789
1630937438415,65773,372910,362768
1630937438425,65766,372953,362776
1630937438435,65768,372922,362822
1630937438445,65748,372920,362791
1630937438455,65739,372875,362794
1630937438465,65723,372928,362806
1630937438475,65726,372917,362856
1630937438485,65731,372941,362830
1630937438495,65725,372912,362857
1630937438505,65721,372921,362872
1630937438515,65726,372907,362867
1630937438525,65733,372951,362865
1630937438535,65730,372951,362885
1630937438545,65739,372997,362832
1630937438555,65737,373007,362881
1630937438565,65726,373034,362901
1630937438575,65743,373005,362919
1630937438585,65747,372987,362930
1630937438595,65743,373038,362935
1630937438605,65748,373068,362947
1630937438615,65749,373059,362977
1630937438625,65747,373083,362949
1630937438635,65757,373079,362988
1630937438645,65761,373089,362962
1630937438655,65761,373055,362998
1630937438665,65767,373144,363000
1630937438675,65772,373092,363011
1630937438685,65795,373170,363021
1630937438695,65790,373117,363049
1630937438705,65816,373169,363006
1630937438715,65801,373191,363036
1630937438725,65820,373212,363049
1630937438735,65831,373199,363055
1630937438745,65840,373265,363082
1630937438755,65845,373276,363089
1630937438765,65860,373287,363071
1630937438775,65857,373271,363095
1630937438785,65859,373297,363098
1630937438795,65885,373269,363093
1630937438805,65881,373359,363132
1630937438815,65887,373344,363126
1630937438825,65895,373366,363129
1630937438835,65914,373365,363183
1630937438845,65928,373447,363183
1630937438855,65934,373396,363231
1630937438865,65942,373450,363205
1630937438875,65957,373440,363188
1630937438885,65970,373475,363236
1630937438895,65973,373476,363219
1630937438905,65981,373533,363247
1630937438915,65997,373534,363256
1630937438925,66007,373573,363243
1630937438935,66025,373637,363276
1630937438945,66049,373599,363265
1630937438955,66050,373632,363289
1630937438965,66059,373672,363316
1630937438975,66077,373646,363361
1630937438985,66093,373699,363353
1630937438995,66123,373728,363366
1630937439005,66147,373692,363368
1630937439015,66144,373743,363419
1630937439025,66141,373693,363469
1630937439035,66147,373676,363442
1630937439045,66125,373637,363438
1630937439055,66110,373577,363398
1630937439065,66096,373576,363388
1630937439075,66074,373599,363413
1630937439085,66071,373540,363419
1630937439095,66056,373461,363409
1630937439105,66036,373467,363405
1630937439115,66039,373504,363441
1630937439125,66035,373454,363421
1630937439135,66022,373410,363411
1630937439145,66021,373373,363436
1630937439155,66012,373437,363409
1630937439165,66003,373430,363476
1630937439175,66007,373388,363432
1630937439185,65996,373353,363513
1630937439195,65979,373353,363467
1630937439205,65975,373381,363451
1630937439215,65986,373361,363476
1630937439225,65975,373353,363471
1630937439235,65975,373348,363487
1630937439245,65963,373399,363506
1630937439255,65954,373382,363463
1630937439265,65962,373371,363498
1630937439275,65963,373401,363534
1630937439285,65966,373375,363489
1630937439295,65976,373320,363521
1630937439305,65979,373348,363504
1630937439315,65990,373339,363516
1630937439325,65982,373412,363575
1630937439335,65987,373366,363550
1630937439345,65977,373380,363540
1630937439355,65976,373369,363546
1630937439365,65976,373379,363557
1630937439375,65992,373387,363567
1630937439385,65985,373413,363591
1630937439395,65994,373390,363572
1630937439405,66001,373359,363592
1630937439415,65991,373376,363582
1630937439425,65988,373416,363570
1630937439435,65999,373443,363618
1630937439445,66004,373397,363639
1630937439455,66005,373452,363608
1630937439465,66020,373448,363601
1630937439475,66039,373473,363616
1630937439485,66035,373509,363602
1630937439495,66048,373446,363660
1630937439505,66043,373475,363602
1630937439515,66045,373490,363662
1630937439525,66067,373463,363628
1630937439535,66069,373483,363658
1630937439545,66093,373557,363633
1630937439555,66098,373542,363698
1630937439565,66110,373576,363661
1630937439575,66117,373622,363689
1630937439585,66120,373579,363677
1630937439595,66131,373644,363699
1630937439605,66146,373683,363667
1630937439615,66150,373674,363668
1630937439625,66165,373684,363730
1630937439635,66179,373673,363721
1630937439645,66188,373742,363710
1630937439655,66209,373770,363706
1630937439665,66231,373748,363730
1630937439675,66232,373784,363777
1630937439685,66252,373786,363771
1630937439695,66264,373862,363729
1630937439705,66273,373820,363757
1630937439715,66279,373879,363781
1630937439725,66293,373861,363724
1630937439735,66294,373861,363765
1630937439745,66328,373961,363767
1630937439755,66345,373899,363791
1630937439765,66350,373963,363829
1630937439775,66371,373983,363805
1630937439785,66368,373990,363797
1630937439795,66402,374014,363816
1630937439805,66420,374036,363826
1630937439815,66426,374087,363867
1630937439825,66448,374075,363853
1630937439835,66450,374075,363860
1630937439845,66466,374074,363836
1630937439855,66482,374135,363813
1630937439865,66501,374153,363896
1630937439875,66509,374162,363909
1630937439885,66536,374174,363911
1630937439895,66557,374198,363912
1630937439905,66582,374246,363932
1630937439915,66591,374270,363948
1630937439925,66628,374307,363984
1630937439935,66651,374323,363974
1630937439945,66652,374238,364017
1630937439955,66676,374250,364010
1630937439965,66668,374205,363960
1630937439975,66679,374245,363966
1630937439985,66688,374232,363980
1630937439995,66656,374181,363963
1630937440005,66675,374216,363977
1630937440015,66661,374152,363985
1630937440025,66679,374183,363992
1630937440035,66676,374122,363981
1630937440045,66669,374176,363944
1630937440055,66682,374136,363933
1630937440065,66671,374117,363902
1630937440075,66669,374119,363905
1630937440085,66662,374137,363983
1630937440095,66661,374070,363914
1630937440105,66670,374091,363909
1630937440115,66656,374062,363939
1630937440125,66661,374028,363918
1630937440135,66667,374040,363925
1630937440145,66673,374040,363908
1630937440155,66670,374105,363901
1630937440165,66665,374018,363859
1630937440175,66674,374056,363848
1630937440185,66663,374035,363850
1630937440195,66681,374051,363869
1630937440205,66689,374058,363834
1630937440215,66680,374057,363858
1630937440225,66684,374005,363875
1630937440235,66687,374001,363871
1630937440245,66700,374059,363858
1630937440255,66713,374067,363858
1630937440265,66723,374037,363857
1630937440275,66718,374063,363851
1630937440285,66732,374091,363808
1630937440295,66748,374034,363816
1630937440305,66747,374036,363860
1630937440315,66754,374060,363864
1630937440325,66766,374079,363841
1630937440335,66770,374120,363894
1630937440345,66791,374110,363858
1630937440355,66791,374119,363845
1630937440365,66804,374118,363798
1630937440375,66795,374105,363850
1630937440385,66816,374104,363845
1630937440395,66819,374118,363829
1630937440405,66831,374119,363843
1630937440415,66841,374193,363842
1630937440425,66845,374133,363861
1630937440435,66865,374196,363848
1630937440445,66871,374257,363798
1630937440455,66872,374171,363842
1630937440465,66901,374210,363843
1630937440475,66907,374220,363798
1630937440485,66927,374246,363834
1630937440495,66930,374240,363856
1630937440505,66950,374241,363844
1630937440515,66957,374224,363839
1630937440525,66966,374298,363850
1630937440535,66989,374272,363833
1630937440545,66997,374316,363871
1630937440555,67001,374396,363848
1630937440565,67014,374346,363841
1630937440575,67033,374326,363900
1630937440585,67044,374396,363908
1630937440595,67059,374443,363862
1630937440605,67068,374430,363866
1630937440615,67078,374415,363898
1630937440625,67085,374468,363883
1630937440635,67104,374435,363887
1630937440645,67121,374468,363869
1630937440655,67113,374472,363858
1630937440665,67143,374554,363868
1630937440675,67151,374520,363867
1630937440685,67163,374552,363902
1630937440695,67177,374571,363891
1630937440705,67186,374567,363893
1630937440715,67206,374607,363889
1630937440725,67223,374608,363889
1630937440735,67221,374625,363880
1630937440745,67231,374658,363918
1630937440755,67248,374684,363881
1630937440765,67255,374723,363877
1630937440775,67269,374734,363898
1630937440785,67290,374725,363981
1630937440795,67307,374734,363888
1630937440805,67306,374760,363881
1630937440815,67322,374788,363849
1630937440825,67322,374797,363901
1630937440835,67340,374849,363894
1630937440845,67366,374811,363909
1630937440855,67359,374831,363885
1630937440865,67385,374912,363900
1630937440875,67387,374896,363945
1630937440885,67415,374906,363958
1630937440895,67436,374981,363988
1630937440905,67456,374876,363933
1630937440915,67477,374883,363973
1630937440925,67489,374865,363969
1630937440935,67491,374888,363955
1630937440945,67505,374889,363957
1630937440955,67513,374869,363975
1630937440965,67492,374840,363954
1630937440975,67512,374769,363964
1630937440985,67516,374806,363927
1630937440995,67513,374777,363937
1630937441005,67501,374789,363914
1630937441015,67514,374731,363942
1630937441025,67495,374743,363903
1630937441035,67502,374724,363864
1630937441045,67493,374746,363890
1630937441055,67481,374714,363856
1630937441065,67471,374728,363818
1630937441075,67468,374636,363846
1630937441085,67467,374670,363840
1630937441095,67460,374648,363843
1630937441105,67468,374620,363842
1630937441115,67451,374571,363772
1630937441125,67446,374555,363737
1630937441135,67444,374621,363775
1630937441145,67450,374612,363697
1630937441155,67434,374588,363762
1630937441165,67436,374527,363736
1630937441175,67442,374552,363764
1630937441185,67447,374517,363734
1630937441195,67435,374580,363691
1630937441205,67438,374539,363687
1630937441215,67439,374510,363714
1630937441225,67439,374577,363699
1630937441235,67444,374525,363621
1630937441245,67436,374466,363671
1630937441255,67454,374538,363652
1630937441265,67452,374561,363627
1630937441275,67443,374501,363634
1630937441285,67450,374494,363656
1630937441295,67454,374499,363580
1630937441305,67457,374511,363650
1630937441315,67450,374463,363619
1630937441325,67446,374531,363612
1630937441335,67450,374515,363612
1630937441345,67462,374540,363604
1630937441355,67458,374477,363614
1630937441365,67468,374496,363597
1630937441375,67459,374513,363568
1630937441385,67467,374483,363565
1630937441395,67461,374566,363582
1630937441405,67463,374530,363575
1630937441415,67474,374544,363578
1630937441425,67493,374588,363553
1630937441435,67479,374536,363529
1630937441445,67492,374572,363522
1630937441455,67488,374557,363570
1630937441465,67494,374573,363581
1630937441475,67501,374537,363548
1630937441485,67514,374575,363532
1630937441495,67517,374602,363560
1630937441505,67528,374662,363529
1630937441515,67535,374591,363546
1630937441525,67531,374600,363523
1630937441535,67545,374621,363530
1630937441545,67547,374645,363559
1630937441555,67547,374614,363518
1630937441565,67548,374654,363535
1630937441575,67556,374641,363519
1630937441585,67555,374662,363522
1630937441595,67571,374736,363524
1630937441605,67582,374678,363535
1630937441615,67592,374705,363495
1630937441625,67577,374731,363522
1630937441635,67597,374752,363484
1630937441645,67601,374677,363540
1630937441655,67604,374773,363504
1630937441665,67620,374725,363492
1630937441675,67610,374799,363523
1630937441685,67631,374722,363511
1630937441695,67638,374741,363464
1630937441705,67642,374796,363478
1630937441715,67650,374818,363474
1630937441725,67659,374799,363469
1630937441735,67683,374814,363504
1630937441745,67682,374864,363492
1630937441755,67691,374873,363495
1630937441765,67681,374880,363475
1630937441775,67709,374830,363505
1630937441785,67699,374903,363483
1630937441795,67714,374878,363505
1630937441805,67719,374899,363441
1630937441815,67730,374902,363457
1630937441825,67738,374920,363458
1630937441835,67749,374963,363443
1630937441845,67742,374980,363396
1630937441855,67752,374997,363390
1630937441865,67765,374968,363433
1630937441875,67779,375013,363429
1630937441885,67788,374918,363443
1630937441895,67797,374963,363431
1630937441905,67803,374919,363444
1630937441915,67785,374901,363420
1630937441925,67780,374917,363414
1630937441935,67778,374795,363383
1630937441945,67759,374794,363383
1630937441955,67748,374729,363333
1630937441965,67744,374719,363325
1630937441975,67722,374683,363326
1630937441985,67706,374702,363307
1630937441995,67695,374633,363266
1630937442005,67649,374623,363237
1630937442015,67639,374635,363261
1630937442025,67632,374521,363231
1630937442035,67606,374523,363187
1630937442045,67586,374518,363198
1630937442055,67562,374441,363155
1630937442065,67530,374347,363149
1630937442075,67519,374365,363157
1630937442085,67497,374300,363106
1630937442095,67482,374315,363046
1630937442105,67444,374268,363038
1630937442115,67426,374237,363051
1630937442125,67399,374242,363022
1630937442135,67393,374208,363015
1630937442145,67375,374171,363041
1630937442155,67364,374167,362952
1630937442165,67345,374141,362963
1630937442175,67320,374131,362983
1630937442185,67300,374073,362974
1630937442195,67280,374067,362960
1630937442205,67261,374034,362916
1630937442215,67254,374029,362909
1630937442225,67244,374022,362897
1630937442235,67223,374011,362868
1630937442245,67224,374029,362849
1630937442255,67211,374003,362864
1630937442265,67176,373973,362873
1630937442275,67173,373941,362849
1630937442285,67162,373938,362842
1630937442295,67146,373956,362838
1630937442305,67138,373922,362802
1630937442315,67119,373830,362822
1630937442325,67121,373886,362817
1630937442335,67107,373896,362791
1630937442345,67091,373931,362802
1630937442355,67080,373896,362753
1630937442365,67083,373869,362827
1630937442375,67071,373845,362770
1630937442385,67071,373837,362781
1630937442395,67047,373850,362757
1630937442405,67063,373835,362795
1630937442415,67041,373842,362749
1630937442425,67046,373905,362769
1630937442435,67028,373878,362779
1630937442445,67032,373866,362756
1630937442455,67035,373853,362714
1630937442465,67017,373867,362761
1630937442475,67015,373857,362729
1630937442485,67015,373894,362792
1630937442495,67022,373872,362735
1630937442505,67012,373849,362752
1630937442515,67027,373966,362759
1630937442525,67016,373897,362735
1630937442535,67019,373904,362765
1630937442545,67024,373926,362757
1630937442555,67005,373928,362778
1630937442565,67016,373939,362750
1630937442575,67022,373930,362774
1630937442585,67022,373920,362774
1630937442595,67012,373950,362751
1630937442605,67022,373970,362740
1630937442615,67015,373976,362759
1630937442625,67026,373953,362764
1630937442635,67016,373975,362777
1630937442645,67021,373984,362808
1630937442655,67007,373980,362786
1630937442665,67011,373984,362799
1630937442675,67019,374027,362777
1630937442685,67016,373990,362732
1630937442695,67008,373992,362805
1630937442705,67018,374033,362783
1630937442715,67025,374038,362817
1630937442725,67025,374027,362777
1630937442735,67033,374049,362778
1630937442745,67031,374083,362781
1630937442755,67052,374069,362812
1630937442765,67056,374094,362827
1630937442775,67049,374152,362838
1630937442785,67054,374123,362802
1630937442795,67069,374199,362805
1630937442805,67064,374171,362835
1630937442815,67058,374160,362808
1630937442825,67049,374184,362852
1630937442835,67070,374195,362838
1630937442845,67085,374246,362907
1630937442855,67092,374146,362896
1630937442865,67091,374127,362923
1630937442875,67081,374155,362900
1630937442885,67078,374110,362874
1630937442895,67042,374068,362892
1630937442905,67026,374055,362837
1630937442915,66985,373976,362862
1630937442925,66952,373953,362822
1630937442935,66925,373953,362854
1630937442945,66894,373828,362800
1630937442955,66847,373813,362806
1630937442965,66832,373797,362797
1630937442975,66805,373736,362811
1630937442985,66765,373726,362780
1630937442995,66738,373703,362765
1630937443005,66712,373639,362731
1630937443015,66690,373631,362757
1630937443025,66665,373606,362760
1630937443035,66637,373541,362728
1630937443045,66597,373569,362723
1630937443055,66561,373467,362756
1630937443065,66538,373424,362726
1630937443075,66520,373415,362660
1630937443085,66479,373372,362668
1630937443095,66473,373391,362668
1630937443105,66444,373369,362681
1630937443115,66446,373343,362683
1630937443125,66430,373343,362646
1630937443135,66408,373294,362686
1630937443145,66392,373306,362690
1630937443155,66373,373304,362690
1630937443165,66361,373351,362688
1630937443175,66340,373279,362701
1630937443185,66315,373262,362701
1630937443195,66303,373226,362682
1630937443205,66291,373257,362703
1630937443215,66279,373193,362681
1630937443225,66275,373227,362706
1630937443235,66257,373165,362692
1630937443245,66235,373210,362708
1630937443255,66227,373136,362715
1630937443265,66226,373195,362710
1630937443275,66198,373164,362691
1630937443285,66191,373143,362708
1630937443295,66172,373151,362714
1630937443305,66163,373156,362708
1630937443315,66154,373114,362732
1630937443325,66147,373164,362757
1630937443335,66145,373135,362717
1630937443345,66131,373114,362735
1630937443355,66143,373146,362765
1630937443365,66131,373170,362758
1630937443375,66117,373202,362793
1630937443385,66126,373176,362781
1630937443395,66119,373173,362774
1630937443405,66105,373167,362811
1630937443415,66100,373146,362803
1630937443425,66111,373176,362803
1630937443435,66116,373233,362802
1630937443445,66104,373177,362805
1630937443455,66119,373160,362812
1630937443465,66116,373170,362814
1630937443475,66108,373224,362844
1630937443485,66111,373242,362816
1630937443495,66108,373233,362870
1630937443505,66118,373274,362822
1630937443515,66120,373274,362890
1630937443525,66133,373256,362916
1630937443535,66125,373306,362897
1630937443545,66152,373287,362924
1630937443555,66133,373329,362941
1630937443565,66146,373334,362957
1630937443575,66146,373328,362925
1630937443585,66138,373329,362945
1630937443595,66157,373351,362930
1630937443605,66153,373380,362964
1630937443615,66166,373352,362995
1630937443625,66163,373405,363002
1630937443635,66160,373459,363008
1630937443645,66178,373487,363018
1630937443655,66178,373442,363022
1630937443665,66184,373449,363032
1630937443675,66188,373416,363084
1630937443685,66193,373525,363060
1630937443695,66224,373502,363066
1630937443705,66217,373527,363100
1630937443715,66224,373529,363062
1630937443725,66239,373581,363071
1630937443735,66246,373543,363127
1630937443745,66263,373610,363125
1630937443755,66258,373620,363162
1630937443765,66278,373622,363159
1630937443775,66277,373581,363195
1630937443785,66257,373515,363175
1630937443795,66252,373479,363191
1630937443805,66223,373471,363148
1630937443815,66197,373487,363177
1630937443825,66180,373416,363170
1630937443835,66150,373380,363175
1630937443845,66129,373326,363171
1630937443855,66088,373331,363180
1630937443865,66094,373219,363184
1630937443875,66075,373241,363184
1630937443885,66053,373241,363156
1630937443895,66038,373151,363160
1630937443905,66025,373127,363149
1630937443915,66007,373121,363132
1630937443925,65987,373070,363162
1630937443935,65974,373081,363144
1630937443945,65948,373056,363192
1630937443955,65934,373014,363192
1630937443965,65912,373010,363181
1630937443975,65902,372947,363210
1630937443985,65881,372947,363187
1630937443995,65878,372933,363155
1630937444005,65864,372957,363168
1630937444015,65855,372885,363219
1630937444025,65871,372911,363225
1630937444035,65847,372966,363218
1630937444045,65846,372874,363226
1630937444055,65855,372948,363212
1630937444065,65852,372904,363229
1630937444075,65854,372910,363215
1630937444085,65829,373003,363223
1630937444095,65840,372884,363263
1630937444105,65837,372872,363246
1630937444115,65818,372918,363258
1630937444125,65810,372868,363284
1630937444135,65827,372882,363272
1630937444145,65813,372858,363285
1630937444155,65812,372898,363247
1630937444165,65816,372879,363285
1630937444175,65819,372868,363337
1630937444185,65839,372894,363347
1630937444195,65835,372885,363277
1630937444205,65831,372909,363322
1630937444215,65822,372913,363330
1630937444225,65850,372884,363328
1630937444235,65842,372931,363370
1630937444245,65846,372897,363409
1630937444255,65844,372910,363376
1630937444265,65856,372930,363397
1630937444275,65865,372964,363399
1630937444285,65873,372966,363433
1630937444295,65881,372980,363443
1630937444305,65889,372976,363400
1630937444315,65904,372992,363423
1630937444325,65909,372999,363451
1630937444335,65911,373015,363466
1630937444345,65922,373035,363524
1630937444355,65937,373055,363472
1630937444365,65929,373087,363501
1630937444375,65957,373112,363520
1630937444385,65966,373123,363529
1630937444395,65975,373133,363513
1630937444405,65983,373168,363542
1630937444415,65999,373194,363565
1630937444425,66007,373158,363542
1630937444435,66007,373160,363535
1630937444445,66017,373223,363572
1630937444455,66032,373228,363571
1630937444465,66048,373260,363589
1630937444475,66060,373247,363605
1630937444485,66063,373291,363638
1630937444495,66080,373361,363646
1630937444505,66112,373276,363636
1630937444515,66112,373369,363641
1630937444525,66132,373361,363684
1630937444535,66145,373403,363628
1630937444545,66153,373424,363662
1630937444555,66172,373434,363691
1630937444565,66191,373476,363695
1630937444575,66194,373463,363712
1630937444585,66216,373487,363725
1630937444595,66210,373507,363720
1630937444605,66235,373520,363743
1630937444615,66242,373537,363734
1630937444625,66258,373551,363749
1630937444635,66282,373596,363758
1630937444645,66294,373605,363760
1630937444655,66313,373631,363763
1630937444665,66337,373693,363810
1630937444675,66337,373674,363827
1630937444685,66370,373709,363808
1630937444695,66380,373778,363796
1630937444705,66394,373767,363866
1630937444715,66418,373754,363862
1630937444725,66433,373740,363898
1630937444735,66459,373731,363882
1630937444745,66452,373763,363907
1630937444755,66442,373687,363909
1630937444765,66436,373734,363880
1630937444775,66448,373700,363875
1630937444785,66437,373667,363904
1630937444795,66433,373664,363889
1630937444805,66431,373580,363875
1630937444815,66417,373626,363867
1630937444825,66422,373577,363912
1630937444835,66418,373545,363892
1630937444845,66409,373573,363877
1630937444855,66412,373519,363833
1630937444865,66389,373535,363868
1630937444875,66404,373508,363855
1630937444885,66395,373514,363876
1630937444895,66382,373474,363858
1630937444905,66384,373515,363863
1630937444915,66387,373451,363853
1630937444925,66378,373394,363913
1630937444935,66385,373459,363866
1630937444945,66372,373502,363808
1630937444955,66372,373453,363860
1630937444965,66370,373436,363836
1630937444975,66373,373480,363819
1630937444985,66383,373436,363815
1630937444995,66389,373478,363861
1630937445005,66399,373416,363823
1630937445015,66398,373484,363816
1630937445025,66399,373442,363861
1630937445035,66413,373446,363853
1630937445045,66413,373450,363836
1630937445055,66422,373473,363846
1630937445065,66429,373404,363856
1630937445075,66438,373470,363879
1630937445085,66419,373443,363839
1630937445095,66425,373473,363863
1630937445105,66436,373451,363855
1630937445115,66467,373461,363874
1630937445125,66462,373477,363863
1630937445135,66475,373492,363834
1630937445145,66487,373533,363918
1630937445155,66495,373525,363858
1630937445165,66487,373512,363880
1630937445175,66513,373575,363890
1630937445185,66497,373566,363885
1630937445195,66528,373559,363872
1630937445205,66544,373584,363849
1630937445215,66544,373540,363879
1630937445225,66562,373592,363865
1630937445235,66554,373586,363875
1630937445245,66570,373590,363879
1630937445255,66577,373600,363916
1630937445265,66584,373632,363888
1630937445275,66596,373690,363918
1630937445285,66613,373680,363909
1630937445295,66626,373711,363931
1630937445305,66648,373743,363903
1630937445315,66640,373723,363922
1630937445325,66663,373748,363906
1630937445335,66681,373745,363919
1630937445345,66669,373774,363952
1630937445355,66691,373827,363949
1630937445365,66718,373804,363907
1630937445375,66729,373819,363912
1630937445385,66743,373820,363943
1630937445395,66759,373849,363927
1630937445405,66760,373872,363963
1630937445415,66771,373926,363918
1630937445425,66789,373936,363967
1630937445435,66798,373923,363972
1630937445445,66815,373943,363939
1630937445455,66829,373957,363946
1630937445465,66849,374029,363972
1630937445475,66864,374022,363987
1630937445485,66878,374047,363933
1630937445495,66897,374086,363980
1630937445505,66905,374052,363986
1630937445515,66933,374092,363974
1630937445525,66931,374158,363932
1630937445535,66960,374134,363952
1630937445545,66963,374159,363967
1630937445555,66982,374236,363957
1630937445565,66983,374225,363988
1630937445575,67014,374232,364013
1630937445585,67018,374244,363962
1630937445595,67036,374240,364010
1630937445605,67056,374343,364021
1630937445615,67067,374285,364024
1630937445625,67101,374340,364037
1630937445635,67104,374334,364022
1630937445645,67113,374359,364018
1630937445655,67145,374375,364011
1630937445665,67153,374416,364051
1630937445675,67172,374423,364076
1630937445685,67211,374459,364032
1630937445695,67230,374455,364079
1630937445705,67256,374425,364113
1630937445715,67278,374503,364130
1630937445725,67287,374497,364137
1630937445735,67304,374507,364176
1630937445745,67320,374488,364147
1630937445755,67316,374526,364134
1630937445765,67322,374480,364176
1630937445775,67328,374472,364164
1630937445785,67348,374439,364098
1630937445795,67346,374443,364158
1630937445805,67363,374467,364128
1630937445815,67368,374511,364156
1630937445825,67366,374414,364123
1630937445835,67363,374431,364125
1630937445845,67365,374447,364125
1630937445855,67380,374411,364124
1630937445865,67383,374416,364125
1630937445875,67383,374400,364128
1630937445885,67388,374388,364068
1630937445895,67382,374435,364110
1630937445905,67390,374403,364086
1630937445915,67393,374396,364102
1630937445925,67405,374382,364113
1630937445935,67408,374372,364110
1630937445945,67413,374503,364116
1630937445955,67416,374421,364119
1630937445965,67415,374445,364127
1630937445975,67430,374435,364114
1630937445985,67445,374485,364069
1630937445995,67441,374423,364103
1630937446005,67471,374499,364104
1630937446015,67469,374437,364123
1630937446025,67473,374466,364077
1630937446035,67484,374451,364068
1630937446045,67490,374496,364058
1630937446055,67489,374524,364082
1630937446065,67497,374521,364108
1630937446075,67508,374471,364085
1630937446085,67509,374514,364090
1630937446095,67521,374519,364089
1630937446105,67533,374526,364082
1630937446115,67555,374560,364078
1630937446125,67544,374583,364061
1630937446135,67556,374531,364068
1630937446145,67561,374579,364062
1630937446155,67571,374581,364063
1630937446165,67584,374522,364066
1630937446175,67591,374580,364097
1630937446185,67591,374639,364036
1630937446195,67609,374595,364083
1630937446205,67623,374663,364069
1630937446215,67619,374652,364071
1630937446225,67638,374659,364093
1630937446235,67646,374632,364082
1630937446245,67651,374638,364034
1630937446255,67660,374732,364033
1630937446265,67676,374708,364046
1630937446275,67672,374718,364043
1630937446285,67710,374744,364036
1630937446295,67719,374775,364034
1630937446305,67722,374740,364047
1630937446315,67732,374808,364044
1630937446325,67750,374790,364048
1630937446335,67748,374806,364055
1630937446345,67769,374794,364073
1630937446355,67774,374821,364070
1630937446365,67792,374849,364075
1630937446375,67803,374897,364057
1630937446385,67799,374824,364100
1630937446395,67801,374884,364010
1630937446405,67818,374925,364072
1630937446415,67823,374933,364041
1630937446425,67831,374882,364020
1630937446435,67851,374931,364050
1630937446445,67854,374971,364011
1630937446455,67879,374978,364052
1630937446465,67870,375005,364056
1630937446475,67903,374988,364042
1630937446485,67905,375029,364043
1630937446495,67917,375049,364038
1630937446505,67934,375059,364066
1630937446515,67943,375108,364066
1630937446525,67948,375072,364059
1630937446535,67977,375071,364062
1630937446545,67975,375085,364061
1630937446555,67982,375138,364054
1630937446565,67999,375130,364034
1630937446575,68002,375176,364076
1630937446585,68020,375202,364060
1630937446595,68049,375207,364022
1630937446605,68044,375205,364047
1630937446615,68055,375224,364081
1630937446625,68094,375257,364086
1630937446635,68115,375206,364089
1630937446645,68119,375291,364101
1630937446655,68127,375251,364120
1630937446665,68151,375266,364144
1630937446675,68153,375241,364099
1630937446685,68159,375238,364118
1630937446695,68170,375203,364126
1630937446705,68169,375221,364105
1630937446715,68155,375200,364078
1630937446725,68179,375170,364084
1630937446735,68170,375196,364076
1630937446745,68159,375215,364088
1630937446755,68161,375184,364056
1630937446765,68159,375143,364072
1630937446775,68158,375150,364038
1630937446785,68156,375155,364088
1630937446795,68158,375118,364056
1630937446805,68138,375158,364033
1630937446815,68135,375081,363994
1630937446825,68136,375047,363997
1630937446835,68120,375071,363998
1630937446845,68126,375079,364026
1630937446855,68130,375046,363977
1630937446865,68104,374978,363916
1630937446875,68097,375014,363963
1630937446885,68100,374997,363929
1630937446895,68092,375063,363936
1630937446905,68095,374995,363917
1630937446915,68090,374987,363896
1630937446925,68092,374998,363902
1630937446935,68089,374984,363925
1630937446945,68086,374974,363916
1630937446955,68078,374947,363835
1630937446965,68081,374949,363873
1630937446975,68076,374952,363872
1630937446985,68068,374959,363868
1630937446995,68077,374950,363841
1630937447005,68075,374957,363883
1630937447015,68081,374992,363832
1630937447025,68083,374998,363840
1630937447035,68082,374888,363862
1630937447045,68074,374925,363815
1630937447055,68054,374957,363789
1630937447065,68070,374960,363791
1630937447075,68083,374984,363803
1630937447085,68080,374976,363763
1630937447095,68072,374905,363795
1630937447105,68063,374927,363758
1630937447115,68085,374958,363767
1630937447125,68065,374947,363748
1630937447135,68063,374944,363769
1630937447145,68079,375011,363715
1630937447155,68064,374943,363767
1630937447165,68074,374969,363713
1630937447175,68084,374973,363707
1630937447185,68073,374990,363748
1630937447195,68087,374991,363721
1630937447205,68078,375001,363737
1630937447215,68081,375002,363712
1630937447225,68081,375020,363717
1630937447235,68090,375025,363687
1630937447245,68109,375010,363697
1630937447255,68098,375061,363688
1630937447265,68105,375105,363691
1630937447275,68115,375024,363663
1630937447285,68112,375059,363688
1630937447295,68103,375057,363676
1630937447305,68122,375103,363673
1630937447315,68118,375060,363705
1630937447325,68112,375091,363696
1630937447335,68135,375094,363678
1630937447345,68136,375118,363677
1630937447355,68137,375103,363697
1630937447365,68152,375125,363662
1630937447375,68160,375090,363661
1630937447385,68162,375141,363638
1630937447395,68160,375185,363710
1630937447405,68168,375146,363666
1630937447415,68181,375221,363641
1630937447425,68171,375233,363662
1630937447435,68177,375221,363694
1630937447445,68195,375266,363667
1630937447455,68182,375250,363686
1630937447465,68207,375231,363690
1630937447475,68213,375298,363651
1630937447485,68210,375275,363660
1630937447495,68220,375309,363683
1630937447505,68224,375341,363668
1630937447515,68225,375330,363669
1630937447525,68241,375367,363674
1630937447535,68241,375378,363672
1630937447545,68240,375389,363651
1630937447555,68250,375368,363663
1630937447565,68244,375355,363664
1630937447575,68269,375417,363680
1630937447585,68298,375381,363690
1630937447595,68317,375362,363709
1630937447605,68318,375400,363759
1630937447615,68299,375365,363733
1630937447625,68302,375346,363693
1630937447635,68285,375291,363715
1630937447645,68263,375288,363658
1630937447655,68249,375242,363682
1630937447665,68223,375222,363662
1630937447675,68219,375192,363670
1630937447685,68188,375182,363657
1630937447695,68159,375132,363612
1630937447705,68133,375145,363622
1630937447715,68114,375065,363599
1630937447725,68106,375013,363575
1630937447735,68060,375013,363539
1630937447745,68056,374959,363537
1630937447755,68037,374969,363548
1630937447765,68004,374962,363504
1630937447775,67987,374897,363463
1630937447785,67958,374883,363492
1630937447795,67925,374818,363474
1630937447805,67892,374813,363479
1630937447815,67875,374828,363476
1630937447825,67842,374728,363448
1630937447835,67814,374724,363392
1630937447845,67794,374708,363393
1630937447855,67781,374631,363370
1630937447865,67752,374680,363386
1630937447875,67741,374657,363375
1630937447885,67723,374663,363337
1630937447895,67717,374655,363309
1630937447905,67693,374601,363330
1630937447915,67669,374595,363341
1630937447925,67673,374588,363304
1630937447935,67640,374611,363307
1630937447945,67635,374560,363329
1630937447955,67616,374563,363313
1630937447965,67608,374511,363296
1630937447975,67589,374509,363285
1630937447985,67571,374512,363310
1630937447995,67548,374405,363310
1630937448005,67548,374399,363283
1630937448015,67529,374461,363288
1630937448025,67523,374507,363270
1630937448035,67509,374489,363270
1630937448045,67486,374418,363257
1630937448055,67482,374431,363245
1630937448065,67482,374406,363304
1630937448075,67450,374443,363247
1630937448085,67465,374404,363237
1630937448095,67445,374421,363258
1630937448105,67430,374395,363222
1630937448115,67420,374417,363219
1630937448125,67405,374411,363232
1630937448135,67407,374399,363234
1630937448145,67414,374392,363214
1630937448155,67400,374441,363209
1630937448165,67397,374405,363188
1630937448175,67387,374397,363175
1630937448185,67379,374420,363183
1630937448195,67368,374399,363214
1630937448205,67363,374407,363215
1630937448215,67365,374417,363192
1630937448225,67367,374415,363179
1630937448235,67369,374404,363207
1630937448245,67378,374484,363178
1630937448255,67372,374430,363162
1630937448265,67361,374450,363180
1630937448275,67376,374486,363229
1630937448285,67375,374494,363199
1630937448295,67378,374488,363208
1630937448305,67371,374553,363215
1630937448315,67359,374507,363166
1630937448325,67382,374478,363227
1630937448335,67362,374461,363192
1630937448345,67369,374528,363197
1630937448355,67366,374556,363232
1630937448365,67372,374560,363222
1630937448375,67389,374552,363227
1630937448385,67359,374589,363256
1630937448395,67376,374527,363245
1630937448405,67379,374568,363185
1630937448415,67398,374578,363235
1630937448425,67393,374623,363242
1630937448435,67396,374637,363256
1630937448445,67401,374652,363243
1630937448455,67410,374665,363247
1630937448465,67415,374608,363288
1630937448475,67409,374696,363263
1630937448485,67416,374693,363286
1630937448495,67421,374683,363298
1630937448505,67430,374697,363282
1630937448515,67434,374733,363284
1630937448525,67443,374722,363289
1630937448535,67456,374702,363279
1630937448545,67462,374777,363260
1630937448555,67458,374762,363273
1630937448565,67480,374835,363249
1630937448575,67470,374782,363341
1630937448585,67476,374847,363307
1630937448595,67488,374800,363335
1630937448605,67499,374828,363380
1630937448615,67497,374779,363384
1630937448625,67490,374793,363406
1630937448635,67476,374705,363388
1630937448645,67437,374701,363391
1630937448655,67415,374688,363367
1630937448665,67385,374624,363368
1630937448675,67350,374574,363319
1630937448685,67324,374556,363339
1630937448695,67303,374520,363344
1630937448705,67291,374475,363276
1630937448715,67236,374490,363330
1630937448725,67227,374406,363293
1630937448735,67188,374406,363287
1630937448745,67159,374331,363269
1630937448755,67124,374336,363302
1630937448765,67105,374267,363274
1630937448775,67067,374253,363250
1630937448785,67031,374200,363255
1630937448795,67009,374226,363265
1630937448805,66968,374113,363237
1630937448815,66936,374088,363219
1630937448825,66920,374075,363220
1630937448835,66887,374044,363224
1630937448845,66864,374057,363214
1630937448855,66833,374019,363238
1630937448865,66821,373995,363252
1630937448875,66812,373985,363169
1630937448885,66805,374034,363243
1630937448895,66773,373971,363170
1630937448905,66761,373965,363140
1630937448915,66743,373936,363173
1630937448925,66738,373897,363222
1630937448935,66713,373933,363202
1630937448945,66701,373877,363211
1630937448955,66698,373881,363225
1630937448965,66682,373863,363224
1630937448975,66666,373853,363185
1630937448985,66645,373858,363189
1630937448995,66632,373887,363202
1630937449005,66628,373841,363192
1630937449015,66628,373861,363188
1630937449025,66625,373805,363192
1630937449035,66597,373832,363205
1630937449045,66587,373837,363216
1630937449055,66599,373881,363231
1630937449065,66569,373805,363248
1630937449075,66585,373832,363245
1630937449085,66575,373853,363246
1630937449095,66557,373805,363242
1630937449105,66561,373855,363239
1630937449115,66564,373862,363236
1630937449125,66561,373851,363250
1630937449135,66552,373897,363202
1630937449145,66541,373872,363268
1630937449155,66549,373809,363275
1630937449165,66543,373912,363246
1630937449175,66551,373821,363239
1630937449185,66552,373938,363287
1630937449195,66561,373908,363282
1630937449205,66565,373910,363283
1630937449215,66548,373890,363261
1630937449225,66561,373923,363289
1630937449235,66559,373898,363318
1630937449245,66568,373918,363310
1630937449255,66561,373946,363304
1630937449265,66580,373922,363319
1630937449275,66579,373953,363348
1630937449285,66585,374011,363308
1630937449295,66583,373966,363344
1630937449305,66582,374011,363328
1630937449315,66585,374006,363307
1630937449325,66599,374020,363330
1630937449335,66601,374058,363389
1630937449345,66621,374046,363377
1630937449355,66621,374066,363397
1630937449365,66620,374106,363367
1630937449375,66631,374108,363348
1630937449385,66641,374126,363416
1630937449395,66651,374149,363425
1630937449405,66650,374201,363422
1630937449415,66676,374189,363425
1630937449425,66666,374193,363436
1630937449435,66689,374205,363434
1630937449445,66707,374259,363438
1630937449455,66704,374251,363451
1630937449465,66710,374216,363468
1630937449475,66716,374252,363471
1630937449485,66729,374306,363450
1630937449495,66739,374287,363510
1630937449505,66753,374365,363507
1630937449515,66778,374285,363547
1630937449525,66772,374361,363505
1630937449535,66793,374388,363491
1630937449545,66820,374368,363570
1630937449555,66818,374441,363535
1630937449565,66837,374457,363540
1630937449575,66830,374500,363572
1630937449585,66853,374496,363602
1630937449595,66880,374497,363603
1630937449605,66899,374487,363637
1630937449615,66897,374515,363653
1630937449625,66906,374478,363666
1630937449635,66896,374505,363693
1630937449645,66900,374436,363715
1630937449655,66887,374417,363677
1630937449665,66883,374408,363708
1630937449675,66887,374428,363693
1630937449685,66855,374384,363692
1630937449695,66842,374346,363659
1630937449705,66862,374338,363721
1630937449715,66835,374387,363703
1630937449725,66833,374328,363705
1630937449735,66828,374300,363696
1630937449745,66826,374300,363752
1630937449755,66815,374334,363747
1630937449765,66810,374300,363726
1630937449775,66806,374297,363738
1630937449785,66811,374289,363717
1630937449795,66800,374289,363731
1630937449805,66789,374201,363754
1630937449815,66784,374261,363774
1630937449825,66786,374276,363754
1630937449835,66787,374250,363782
1630937449845,66780,374223,363788
1630937449855,66792,374254,363804
1630937449865,66792,374249,363802
1630937449875,66794,374304,363811
1630937449885,66809,374280,363842
1630937449895,66812,374250,363845
1630937449905,66823,374213,363814
1630937449915,66826,374239,363848
1630937449925,66832,374247,363855
1630937449935,66825,374261,363849
1630937449945,66844,374251,363872
1630937449955,66844,374277,363928
1630937449965,66850,374258,363907
1630937449975,66852,374321,363914
1630937449985,66872,374317,363964
1630937449995,66882,374348,363988
1630937450005,66903,374310,363960
1630937450015,66904,374339,363975
1630937450025,66917,374334,363994
1630937450035,66920,374356,363996
1630937450045,66925,374382,363970
1630937450055,66935,374349,363988
1630937450065,66937,374406,364017
1630937450075,66948,374396,364014
1630937450085,66937,374414,363996
1630937450095,66950,374383,364010
1630937450105,66960,374364,363986
1630937450115,66961,374416,364017
1630937450125,66964,374433,364033
1630937450135,66974,374447,364005
1630937450145,66991,374442,364045
1630937450155,66986,374477,364056
1630937450165,67005,374447,364026
1630937450175,67016,374478,364007
1630937450185,67028,374557,364036
1630937450195,67014,374519,364022
1630937450205,67039,374492,364038
1630937450215,67048,374551,364016
1630937450225,67060,374542,364022
1630937450235,67058,374557,364035
1630937450245,67088,374592,364019
1630937450255,67087,374585,364067
1630937450265,67103,374612,364012
1630937450275,67115,374628,364043
1630937450285,67123,374659,364010
1630937450295,67120,374656,364027
1630937450305,67133,374677,363992
1630937450315,67155,374651,363986
1630937450325,67174,374723,363967
1630937450335,67179,374745,364011
1630937450345,67169,374718,364004
1630937450355,67194,374783,364044
1630937450365,67203,374751,363989
1630937450375,67228,374755,363950
1630937450385,67221,374795,364020
1630937450395,67231,374778,363985
1630937450405,67252,374787,364014
1630937450415,67248,374793,364014
1630937450425,67257,374853,364013
1630937450435,67269,374897,363956
1630937450445,67278,374889,364000
1630937450455,67294,374933,364008
1630937450465,67304,374895,364001
1630937450475,67314,374912,364000
1630937450485,67342,374911,363977
1630937450495,67354,374946,363979
1630937450505,67377,374941,364012
1630937450515,67402,374997,364009
1630937450525,67408,374975,364068
1630937450535,67422,374932,364048
1630937450545,67428,374980,364064
1630937450555,67432,374962,364027
1630937450565,67452,374941,364054
1630937450575,67434,374935,364044
1630937450585,67416,374931,364080
1630937450595,67415,374870,363972
1630937450605,67417,374893,364016
1630937450615,67416,374859,364026
1630937450625,67406,374902,364009
1630937450635,67415,374863,364007
1630937450645,67431,374863,364002
1630937450655,67426,374833,363978
1630937450665,67400,374796,363986
1630937450675,67417,374784,363937
1630937450685,67412,374786,363935
1630937450695,67411,374797,363937
1630937450705,67415,374803,363944
1630937450715,67416,374790,363949
1630937450725,67409,374744,363902
1630937450735,67410,374761,363905
1630937450745,67405,374708,363891
1630937450755,67398,374787,363906
1630937450765,67391,374760,363899
1630937450775,67407,374755,363887
1630937450785,67411,374720,363900
1630937450795,67393,374749,363866
1630937450805,67416,374736,363858
1630937450815,67416,374729,363827
1630937450825,67418,374758,363843
1630937450835,67414,374698,363823
1630937450845,67431,374742,363831
1630937450855,67428,374766,363866
1630937450865,67436,374718,363830
1630937450875,67440,374729,363845
1630937450885,67441,374752,363790
1630937450895,67447,374766,363820
1630937450905,67445,374739,363800
1630937450915,67439,374718,363791
1630937450925,67459,374708,363780
1630937450935,67457,374755,363753
1630937450945,67461,374788,363730
1630937450955,67476,374799,363759
1630937450965,67469,374759,363799
1630937450975,67491,374774,363725
1630937450985,67486,374812,363762
1630937450995,67505,374822,363748
1630937451005,67514,374844,363745
1630937451015,67518,374838,363768
1630937451025,67525,374846,363780
1630937451035,67541,374835,363740
1630937451045,67544,374862,363778
1630937451055,67552,374872,363753
1630937451065,67551,374868,363710
1630937451075,67561,374884,363720
1630937451085,67564,374932,363719
1630937451095,67586,374904,363753
1630937451105,67593,374883,363727
1630937451115,67619,374937,363754
1630937451125,67617,374984,363728
1630937451135,67611,374950,363741
1630937451145,67646,374978,363722
1630937451155,67653,374951,363752
1630937451165,67672,374974,363735
1630937451175,67683,375000,363714
1630937451185,67677,375035,363734
1630937451195,67698,375066,363712
1630937451205,67711,375100,363741
1630937451215,67704,375115,363706
1630937451225,67719,375086,363735
1630937451235,67725,375132,363726
1630937451245,67731,375174,363750
1630937451255,67758,375155,363719
1630937451265,67765,375170,363772
1630937451275,67786,375157,363712
1630937451285,67787,375192,363705
1630937451295,67803,375207,363690
1630937451305,67827,375228,363739
1630937451315,67822,375283,363724
1630937451325,67839,375252,363738
1630937451335,67855,375291,363738
1630937451345,67870,375261,363710
1630937451355,67853,375331,363762
1630937451365,67876,375280,363737
1630937451375,67906,375358,363754
1630937451385,67892,375355,363732
1630937451395,67913,375361,363746
1630937451405,67930,375411,363745
1630937451415,67938,375481,363714
1630937451425,67955,375455,363756
1630937451435,67979,375452,363796
1630937451445,68002,375502,363803
1630937451455,68023,375480,363757
1630937451465,68063,375485,363823
1630937451475,68065,375473,363798
1630937451485,68094,375541,363842
1630937451495,68074,375469,363820
1630937451505,68095,375454,363821
1630937451515,68104,375427,363823
1630937451525,68097,375416,363858
1630937451535,68097,375443,363809
1630937451545,68106,375391,363798
1630937451555,68101,375384,363779
1630937451565,68089,375444,363807
1630937451575,68090,375354,363803
1630937451585,68095,375380,363797
1630937451595,68079,375362,363785
1630937451605,68089,375331,363778
1630937451615,68081,375374,363763
1630937451625,68097,375313,363751
1630937451635,68094,375303,363745
1630937451645,68090,375309,363701
1630937451655,68084,375315,363721
1630937451665,68083,375275,363656
1630937451675,68071,375282,363694
1630937451685,68073,375230,363675
1630937451695,68069,375240,363660
1630937451705,68064,375286,363675
1630937451715,68055,375230,363650
1630937451725,68071,375276,363662
1630937451735,68066,375287,363644
1630937451745,68052,375260,363645
1630937451755,68057,375270,363624
1630937451765,68059,375243,363641
1630937451775,68062,375218,363614
1630937451785,68073,375192,363604
1630937451795,68081,375233,363639
1630937451805,68066,375181,363606
1630937451815,68065,375157,363604
1630937451825,68059,375232,363609
1630937451835,68074,375229,363557
1630937451845,68080,375246,363612
1630937451855,68072,375203,363567
1630937451865,68075,375186,363575
1630937451875,68081,375191,363565
1630937451885,68086,375229,363544
1630937451895,68080,375206,363537
1630937451905,68098,375271,363546
1630937451915,68102,375284,363553
1630937451925,68102,375253,363579
1630937451935,68114,375262,363537
1630937451945,68117,375245,363552
1630937451955,68112,375270,363510
1630937451965,68117,375269,363504
1630937451975,68126,375282,363508
1630937451985,68131,375249,363524
1630937451995,68126,375279,363501
1630937452005,68139,375226,363508
1630937452015,68147,375264,363506
1630937452025,68142,375286,363519
1630937452035,68140,375304,363508
1630937452045,68146,375320,363495
1630937452055,68152,375288,363479
1630937452065,68162,375366,363484
1630937452075,68172,375356,363465
1630937452085,68176,375301,363482
1630937452095,68210,375379,363495
1630937452105,68206,375428,363459
1630937452115,68212,375356,363492
1630937452125,68213,375432,363460
1630937452135,68236,375417,363484
1630937452145,68241,375424,363486
1630937452155,68247,375468,363472
1630937452165,68244,375445,363482
1630937452175,68262,375473,363476
1630937452185,68259,375515,363461
1630937452195,68261,375470,363445
1630937452205,68274,375493,363460
1630937452215,68282,375524,363451
1630937452225,68290,375526,363439
1630937452235,68299,375536,363457
1630937452245,68307,375541,363501
1630937452255,68316,375576,363463
1630937452265,68344,375563,363487
1630937452275,68357,375592,363444
1630937452285,68354,375605,363458
1630937452295,68353,375599,363477
1630937452305,68368,375670,363456
1630937452315,68393,375607,363492
1630937452325,68403,375648,363480
1630937452335,68402,375677,363477
1630937452345,68412,375736,363455
1630937452355,68423,375746,363515
1630937452365,68433,375754,363536
1630937452375,68452,375712,363512
1630937452385,68457,375750,363546
1630937452395,68474,375771,363502
1630937452405,68494,375783,363578
1630937452415,68500,375787,363593
1630937452425,68517,375778,363605
1630937452435,68515,375768,363603
1630937452445,68521,375773,363587
1630937452455,68525,375758,363600
1630937452465,68525,375733,363573
1630937452475,68511,375717,363590
1630937452485,68507,375728,363554
1630937452495,68505,375699,363553
1630937452505,68494,375630,363552
1630937452515,68485,375597,363533
1630937452525,68476,375647,363552
1630937452535,68471,375575,363560
1630937452545,68444,375530,363507
1630937452555,68425,375586,363489
1630937452565,68423,375556,363516
1630937452575,68409,375497,363523
1630937452585,68401,375492,363465
1630937452595,68394,375497,363481
1630937452605,68384,375440,363475
1630937452615,68367,375462,363450
1630937452625,68363,375454,363472
1630937452635,68338,375407,363429
1630937452645,68321,375371,363417
1630937452655,68315,375431,363455
1630937452665,68307,375394,363442
1630937452675,68305,375397,363426
1630937452685,68287,375393,363412
1630937452695,68276,375356,363419
1630937452705,68273,375336,363422
1630937452715,68269,375377,363379
1630937452725,68258,375342,363385
1630937452735,68257,375317,363384
1630937452745,68231,375298,363398
1630937452755,68243,375262,363412
1630937452765,68228,375325,363350
1630937452775,68223,375288,363342
1630937452785,68219,375265,363338
1630937452795,68208,375319,363345
1630937452805,68197,375301,363344
1630937452815,68195,375267,363345
1630937452825,68182,375244,363313
1630937452835,68187,375288,363354
1630937452845,68165,375278,363366
1630937452855,68158,375257,363326
1630937452865,68149,375183,363305
1630937452875,68144,375250,363343
1630937452885,68155,375220,363317
1630937452895,68158,375253,363311
1630937452905,68147,375252,363290
1630937452915,68148,375256,363322
1630937452925,68150,375256,363275
1630937452935,68132,375250,363283
1630937452945,68138,375218,363281
1630937452955,68133,375255,363325
1630937452965,68135,375238,363311
1630937452975,68118,375249,363284
1630937452985,68122,375284,363288
1630937452995,68126,375290,363276
1630937453005,68119,375239,363258
1630937453015,68121,375282,363308
1630937453025,68123,375311,363294
1630937453035,68120,375292,363293
1630937453045,68105,375247,363315
1630937453055,68113,375299,363270
1630937453065,68113,375296,363322
1630937453075,68131,375333,363293
1630937453085,68117,375337,363260
1630937453095,68138,375333,363303
1630937453105,68116,375290,363288
1630937453115,68119,375319,363307
1630937453125,68124,375328,363291
1630937453135,68126,375358,363341
1630937453145,68132,375383,363348
1630937453155,68137,375438,363307
1630937453165,68117,375371,363313
1630937453175,68128,375359,363327
1630937453185,68125,375384,363288
1630937453195,68126,375368,363299
1630937453205,68130,375403,363324
1630937453215,68138,375434,363317
1630937453225,68133,375413,363302
1630937453235,68162,375391,363308
1630937453245,68151,375448,363343
1630937453255,68166,375434,363350
1630937453265,68159,375499,363305
1630937453275,68168,375441,363350
1630937453285,68174,375415,363346
1630937453295,68181,375418,363377
1630937453305,68157,375493,363370
1630937453315,68155,375359,363364
1630937453325,68142,375357,363349
1630937453335,68127,375337,363363
1630937453345,68099,375323,363334
1630937453355,68077,375301,363356
1630937453365,68050,375277,363353
1630937453375,68033,375158,363341
1630937453385,68012,375161,363303
1630937453395,67993,375146,363330
1630937453405,67974,375170,363327
1630937453415,67950,375121,363316
1630937453425,67905,375070,363313
1630937453435,67918,375083,363256
1630937453445,67877,375078,363311
1630937453455,67849,375010,363264
1630937453465,67819,374974,363263
1630937453475,67803,374989,363275
1630937453485,67785,374931,363225
1630937453495,67758,374914,363257
1630937453505,67738,374932,363227
1630937453515,67714,374889,363254
1630937453525,67700,374870,363208
1630937453535,67676,374839,363256
1630937453545,67656,374827,363215
1630937453555,67658,374762,363264
1630937453565,67627,374772,363263
1630937453575,67640,374812,363247
1630937453585,67616,374773,363245
1630937453595,67603,374768,363190
1630937453605,67593,374782,363235
1630937453615,67572,374772,363225
1630937453625,67548,374713,363217
1630937453635,67555,374644,363208
1630937453645,67537,374721,363232
1630937453655,67522,374660,363187
1630937453665,67502,374696,363222
1630937453675,67495,374694,363195
1630937453685,67496,374709,363240
1630937453695,67479,374675,363223
1630937453705,67472,374707,363237
1630937453715,67487,374662,363236
1630937453725,67466,374683,363234
1630937453735,67455,374729,363245
1630937453745,67446,374666,363252
1630937453755,67460,374697,363252
1630937453765,67440,374667,363258
1630937453775,67442,374690,363258
1630937453785,67441,374690,363265
1630937453795,67445,374693,363280
1630937453805,67433,374713,363276
1630937453815,67415,374718,363280
1630937453825,67422,374694,363271
1630937453835,67417,374708,363255
1630937453845,67413,374691,363286
1630937453855,67418,374704,363276
1630937453865,67430,374695,363266
1630937453875,67434,374750,363302
1630937453885,67425,374722,363316
1630937453895,67407,374704,363325
1630937453905,67421,374769,363300
1630937453915,67418,374768,363300
1630937453925,67424,374740,363343
1630937453935,67426,374790,363278
1630937453945,67423,374809,363346
1630937453955,67426,374788,363313
1630937453965,67433,374811,363338
1630937453975,67417,374821,363323
1630937453985,67416,374814,363343
1630937453995,67434,374817,363332
1630937454005,67437,374837,363357
1630937454015,67429,374837,363370
1630937454025,67438,374846,363376
1630937454035,67437,374911,363373
1630937454045,67449,374892,363338
1630937454055,67448,374862,363387
1630937454065,67453,374859,363332
1630937454075,67435,374895,363342
1630937454085,67464,374926,363371
1630937454095,67460,374900,363390
1630937454105,67460,374917,363400
1630937454115,67474,374990,363360
1630937454125,67476,374960,363365
1630937454135,67482,374966,363402
1630937454145,67501,374999,363391
1630937454155,67488,374989,363399
1630937454165,67494,375038,363432
1630937454175,67497,375052,363409
1630937454185,67514,375058,363429
1630937454195,67511,375037,363471
1630937454205,67538,375104,363485
1630937454215,67536,375101,363470
1630937454225,67558,375116,363468
1630937454235,67567,375104,363513
1630937454245,67538,375026,363505
1630937454255,67551,375078,363521
1630937454265,67542,375016,363536
1630937454275,67523,375073,363525
1630937454285,67492,375050,363515
1630937454295,67487,374988,363514
1630937454305,67456,374984,363492
1630937454315,67457,374917,363510
1630937454325,67430,374895,363481
1630937454335,67414,374906,363500
1630937454345,67397,374885,363504
1630937454355,67374,374847,363498
1630937454365,67354,374838,363509
1630937454375,67356,374802,363468
1630937454385,67345,374780,363465
1630937454395,67305,374761,363476
1630937454405,67299,374682,363479
1630937454415,67267,374674,363472
1630937454425,67267,374690,363486
1630937454435,67242,374678,363468
1630937454445,67220,374611,363449
1630937454455,67220,374628,363453
1630937454465,67196,374636,363450
1630937454475,67187,374587,363491
1630937454485,67179,374580,363463
1630937454495,67184,374642,363460
1630937454505,67171,374599,363483
1630937454515,67174,374646,363459
1630937454525,67160,374553,363471
1630937454535,67167,374569,363508
1630937454545,67154,374588,363474
1630937454555,67164,374579,363453
1630937454565,67158,374572,363474
1630937454575,67140,374559,363490
1630937454585,67134,374560,363486
1630937454595,67142,374533,363496
1630937454605,67141,374555,363493
1630937454615,67140,374588,363466
1630937454625,67138,374555,363521
1630937454635,67135,374524,363515
1630937454645,67140,374561,363512
1630937454655,67141,374594,363546
1630937454665,67133,374598,363552
1630937454675,67136,374614,363553
1630937454685,67146,374571,363559
1630937454695,67148,374569,363507
1630937454705,67157,374623,363540
1630937454715,67154,374636,363564
1630937454725,67151,374591,363567
1630937454735,67163,374600,363556
1630937454745,67169,374662,363546
1630937454755,67176,374617,363591
1630937454765,67185,374675,363613
1630937454775,67186,374669,363595
1630937454785,67194,374665,363593
1630937454795,67197,374705,363545
1630937454805,67200,374717,363586
1630937454815,67204,374736,363622
1630937454825,67223,374700,363620
1630937454835,67230,374723,363598
1630937454845,67248,374772,363624
1630937454855,67253,374791,363617
1630937454865,67276,374783,363622
1630937454875,67274,374760,363635
1630937454885,67276,374765,363659
1630937454895,67288,374844,363646
1630937454905,67301,374829,363649
1630937454915,67316,374798,363662
1630937454925,67305,374878,363703
1630937454935,67329,374860,363718
1630937454945,67347,374846,363677
1630937454955,67364,374903,363688
1630937454965,67359,374904,363679
1630937454975,67374,374900,363713
1630937454985,67380,374946,363691
1630937454995,67403,374982,363677
1630937455005,67421,374968,363710
1630937455015,67433,374959,363705
1630937455025,67431,375006,363706
1630937455035,67453,374993,363733
1630937455045,67456,375030,363759
1630937455055,67471,375021,363752
1630937455065,67477,375080,363762
1630937455075,67493,375080,363760
1630937455085,67494,375135,363761
1630937455095,67518,375137,363759
1630937455105,67540,375193,363741
1630937455115,67532,375179,363748
1630937455125,67547,375206,363754
1630937455135,67554,375246,363799
1630937455145,67568,375213,363754
1630937455155,67592,375225,363735
1630937455165,67587,375276,363781
1630937455175,67621,375265,363798
1630937455185,67629,375298,363816
1630937455195,67637,375312,363819
1630937455205,67651,375359,363827
1630937455215,67663,375356,363828
1630937455225,67674,375391,363809
1630937455235,67696,375420,363812
1630937455245,67711,375400,363814
1630937455255,67726,375455,363869
1630937455265,67746,375447,363870
1630937455275,67767,375504,363870
1630937455285,67781,375522,363892
1630937455295,67790,375444,363893
1630937455305,67801,375448,363891
1630937455315,67799,375483,363896
1630937455325,67797,375468,363900
1630937455335,67799,375402,363919
1630937455345,67818,375439,363921
1630937455355,67796,375407,363899
1630937455365,67797,375399,363911
