timestamp,green,ir,red
1631290337178,66351,333545,361749
1631290337188,66374,333570,361742
1631290337198,66381,333507,361749
1631290337208,66396,333571,361749
1631290337218,66409,333579,361799
1631290337228,66415,333573,361729
1631290337238,66435,333566,361751
1631290337248,66449,333535,361777
1631290337258,66453,333554,361774
1631290337268,66447,333527,361808
1631290337278,66439,333518,361801
1631290337288,66438,333463,361748
1631290337298,66425,333432,361764
1631290337308,66389,333374,361727
1631290337318,66369,333355,361715
1631290337328,66344,333384,361736
1631290337338,66311,333378,361703
1631290337348,66287,333297,361688
1631290337358,66265,333282,361648
1631290337368,66258,333283,361678
1631290337378,66243,333309,361649
1631290337388,66223,333283,361674
1631290337398,66210,333306,361683
1631290337408,66207,333278,361661
1631290337418,66207,333271,361695
1631290337428,66207,333286,361664
1631290337438,66204,333242,361708
1631290337448,66205,333304,361709
1631290337458,66199,333272,361714
1631290337468,66197,333225,361729
1631290337478,66219,333271,361689
1631290337488,66207,333303,361786
1631290337498,66210,333254,361771
1631290337508,66223,333281,361811
1631290337518,66220,333313,361825
1631290337528,66217,333296,361842
1631290337538,66215,333308,361856
1631290337548,66216,333309,361831
1631290337558,66206,333307,361848
1631290337568,66206,333282,361840
1631290337578,66217,333313,361858
1631290337588,66217,333315,361873
1631290337598,66213,333296,361896
1631290337608,66199,333335,361918
1631290337618,66221,333361,361921
1631290337628,66227,333351,362012
1631290337638,66234,333362,361999
1631290337648,66248,333376,362025
1631290337658,66239,333393,362024
1631290337668,66232,333387,362005
1631290337678,66237,333408,362062
1631290337688,66244,333451,362071
1631290337698,66248,333479,362066
1631290337708,66253,333399,362058
1631290337718,66256,333484,362083
1631290337728,66265,333488,362094
1631290337738,66275,333501,362122
1631290337748,66277,333495,362098
1631290337758,66294,333509,362136
1631290337768,66308,333523,362167
1631290337778,66316,333555,362179
1631290337788,66338,333604,362193
1631290337798,66356,333558,362194
1631290337808,66375,333596,362242
1631290337818,66377,333607,362219
1631290337828,66391,333568,362213
1631290337838,66395,333591,362184
1631290337848,66414,333608,362243
1631290337858,66432,333678,362248
1631290337868,66442,333586,362260
1631290337878,66458,333660,362265
1631290337888,66477,333679,362260
1631290337898,66498,333682,362296
1631290337908,66508,333685,362299
1631290337918,66517,333626,362287
1631290337928,66512,333662,362319
1631290337938,66529,333653,362331
1631290337948,66524,333662,362308
1631290337958,66547,333689,362300
1631290337968,66561,333694,362328
1631290337978,66565,333723,362310
1631290337988,66588,333720,362315
1631290337998,66588,333727,362327
1631290338008,66605,333769,362338
1631290338018,66606,333703,362295
1631290338028,66612,333743,362312
1631290338038,66622,333708,362298
1631290338048,66627,333744,362316
1631290338058,66640,333633,362301
1631290338068,66623,333637,362315
1631290338078,66595,333601,362289
1631290338088,66596,333614,362282
1631290338098,66570,333516,362326
1631290338108,66537,333505,362299
1631290338118,66528,333543,362312
1631290338128,66499,333501,362289
1631290338138,66478,333436,362293
1631290338148,66464,333473,362295
1631290338158,66435,333434,362257
1631290338168,66431,333447,362267
1631290338178,66410,333434,362272
1631290338188,66402,333384,362293
1631290338198,66395,333388,362284
1631290338208,66377,333356,362290
1631290338218,66372,333339,362279
1631290338228,66352,333338,362204
1631290338238,66349,333336,362250
1631290338248,66323,333294,362187
1631290338258,66325,333337,362192
1631290338268,66304,333336,362187
1631290338278,66294,333303,362169
1631290338288,66292,333329,362196
1631290338298,66276,333265,362175
1631290338308,66272,333275,362153
1631290338318,66241,333204,362130
1631290338328,66236,333242,362095
1631290338338,66226,333237,362056
1631290338348,66215,333200,362110
1631290338358,66197,333151,362014
1631290338368,66188,333180,362033
1631290338378,66159,333148,362018
1631290338388,66175,333185,362014
1631290338398,66159,333117,362007
1631290338408,66128,333135,361993
1631290338418,66140,333121,361971
1631290338428,66136,333098,361957
1631290338438,66133,333141,361960
1631290338448,66137,333131,361930
1631290338458,66126,333102,361923
1631290338468,66126,333110,361913
1631290338478,66132,333104,361887
1631290338488,66126,333105,361915
1631290338498,66138,333131,361908
1631290338508,66126,333117,361889
1631290338518,66132,333107,361910
1631290338528,66132,333070,361900
1631290338538,66139,333152,361929
1631290338548,66133,333095,361879
1631290338558,66148,333098,361892
1631290338568,66158,333070,361862
1631290338578,66158,333086,361843
1631290338588,66169,333099,361893
1631290338598,66166,333076,361893
1631290338608,66179,333135,361881
1631290338618,66189,333108,361906
1631290338628,66195,333147,361900
1631290338638,66206,333105,361901
1631290338648,66215,333146,361928
1631290338658,66212,333130,361884
1631290338668,66224,333182,361923
1631290338678,66237,333150,361928
1631290338688,66247,333146,361926
1631290338698,66255,333154,361950
1631290338708,66273,333165,361942
1631290338718,66279,333152,361940
1631290338728,66283,333142,361944
1631290338738,66298,333143,361925
1631290338748,66308,333202,361937
1631290338758,66327,333219,361957
1631290338768,66343,333224,361952
1631290338778,66344,333248,361940
1631290338788,66372,333217,361959
1631290338798,66386,333210,361972
1631290338808,66389,333240,361977
1631290338818,66403,333214,361967
1631290338828,66397,333145,361999
1631290338838,66406,333176,362008
1631290338848,66399,333134,361972
1631290338858,66380,333088,361962
1631290338868,66375,333026,361968
1631290338878,66330,333048,361971
1631290338888,66329,332989,361956
1631290338898,66278,333003,361988
1631290338908,66262,333001,361950
1631290338918,66242,332952,361971
1631290338928,66229,332924,361939
1631290338938,66214,332906,361947
1631290338948,66176,332881,361897
1631290338958,66148,332918,361887
1631290338968,66131,332891,361928
1631290338978,66116,332844,361938
1631290338988,66101,332848,361900
1631290338998,66079,332829,361953
1631290339008,66064,332861,361954
1631290339018,66052,332816,361974
1631290339028,66047,332825,361994
1631290339038,66050,332858,362018
1631290339048,66045,332863,361989
1631290339058,66043,332792,362078
1631290339068,66040,332814,362064
1631290339078,66037,332806,362025
1631290339088,66045,332827,362036
1631290339098,66044,332860,362079
1631290339108,66041,332846,362082
1631290339118,66043,332777,362103
1631290339128,66031,332827,362140
1631290339138,66034,332777,362145
1631290339148,66029,332802,362147
1631290339158,66025,332817,362204
1631290339168,66033,332800,362222
1631290339178,66036,332868,362222
1631290339188,66042,332847,362245
1631290339198,66032,332869,362262
1631290339208,66048,332848,362293
1631290339218,66047,332919,362280
1631290339228,66058,332832,362281
1631290339238,66049,332897,362296
1631290339248,66056,332867,362310
1631290339258,66072,332863,362365
1631290339268,66064,332878,362336
1631290339278,66083,332928,362365
1631290339288,66087,332911,362350
1631290339298,66083,332864,362370
1631290339308,66083,332886,362360
1631290339318,66093,332888,362322
1631290339328,66101,332916,362346
1631290339338,66097,332958,362361
1631290339348,66104,332965,362377
1631290339358,66128,332946,362387
1631290339368,66140,332915,362374
1631290339378,66131,333014,362394
1631290339388,66144,333002,362398
1631290339398,66172,333004,362441
1631290339408,66186,333047,362449
1631290339418,66210,333079,362483
1631290339428,66229,333095,362506
1631290339438,66246,333159,362564
1631290339448,66251,333262,362634
1631290339458,66273,333264,362672
1631290339468,66283,333295,362693
1631290339478,66304,333338,362728
1631290339488,66312,333338,362750
1631290339498,66353,333412,362801
1631290339508,66367,333392,362880
1631290339518,66422,333540,362859
1631290339528,66424,333552,362972
1631290339538,66457,333599,363024
1631290339548,66482,333653,363059
1631290339558,66506,333712,363069
1631290339568,66547,333740,363143
1631290339578,66584,333759,363180
1631290339588,66604,333789,363271
1631290339598,66642,333881,363283
1631290339608,66659,333821,363327
1631290339618,66678,333864,363334
1631290339628,66679,333845,363375
1631290339638,66684,333895,363387
1631290339648,66686,333890,363436
1631290339658,66661,333874,363459
1631290339668,66659,333821,363512
1631290339678,66662,333804,363544
1631290339688,66641,333857,363561
1631290339698,66612,333867,363540
1631290339708,66635,333868,363555
1631290339718,66609,333863,363592
1631290339728,66626,333874,363622
1631290339738,66607,333840,363579
1631290339748,66608,333844,363632
1631290339758,66595,333835,363609
1631290339768,66585,333785,363613
1631290339778,66573,333839,363662
1631290339788,66569,333793,363665
1631290339798,66570,333789,363682
1631290339808,66557,333782,363674
1631290339818,66553,333767,363657
1631290339828,66551,333769,363680
1631290339838,66537,333721,363733
1631290339848,66558,333758,363734
1631290339858,66559,333800,363702
1631290339868,66554,333737,363678
1631290339878,66536,333731,363683
1631290339888,66542,333719,363686
1631290339898,66530,333737,363673
1631290339908,66515,333620,363670
1631290339918,66514,333654,363596
1631290339928,66492,333603,363559
1631290339938,66471,333544,363536
1631290339948,66471,333569,363472
1631290339958,66446,333506,363506
1631290339968,66433,333482,363480
1631290339978,66434,333453,363449
1631290339988,66425,333434,363399
1631290339998,66434,333365,363389
1631290340008,66432,333334,363371
1631290340018,66407,333345,363370
1631290340028,66419,333262,363328
1631290340038,66422,333218,363272
1631290340048,66401,333195,363303
1631290340058,66402,333193,363215
1631290340068,66395,333198,363237
1631290340078,66399,333118,363220
1631290340088,66403,333168,363200
1631290340098,66392,333167,363124
1631290340108,66389,333085,363134
1631290340118,66376,333077,363068
1631290340128,66371,332969,363065
1631290340138,66366,332959,363028
1631290340148,66355,332968,363002
1631290340158,66351,332955,362991
1631290340168,66333,332906,362977
1631290340178,66344,332887,362956
1631290340188,66331,332870,362856
1631290340198,66334,332837,362831
1631290340208,66311,332823,362773
1631290340218,66303,332756,362734
1631290340228,66310,332770,362665
1631290340238,66308,332746,362644
1631290340248,66291,332717,362599
1631290340258,66287,332718,362537
1631290340268,66255,332628,362523
1631290340278,66253,332642,362460
1631290340288,66251,332668,362454
1631290340298,66246,332651,362410
1631290340308,66252,332631,362435
1631290340318,66256,332668,362411
1631290340328,66266,332653,362416
1631290340338,66265,332654,362414
1631290340348,66260,332720,362384
1631290340358,66266,332728,362387
1631290340368,66260,332692,362386
1631290340378,66274,332692,362415
1631290340388,66279,332678,362398
1631290340398,66281,332702,362406
1631290340408,66269,332674,362401
1631290340418,66256,332625,362371
1631290340428,66221,332600,362473
1631290340438,66199,332577,362412
1631290340448,66188,332570,362399
1631290340458,66177,332529,362448
1631290340468,66142,332597,362384
1631290340478,66123,332581,362368
1631290340488,66094,332537,362416
1631290340498,66072,332562,362382
1631290340508,66069,332534,362351
1631290340518,66054,332514,362326
1631290340528,66015,332501,362337
1631290340538,66005,332455,362285
1631290340548,65969,332413,362280
1631290340558,65934,332461,362220
1631290340568,65914,332409,362241
1631290340578,65896,332399,362194
1631290340588,65871,332403,362167
1631290340598,65867,332394,362187
1631290340608,65847,332379,362181
1631290340618,65840,332375,362142
1631290340628,65825,332302,362094
1631290340638,65811,332336,362062
1631290340648,65792,332330,362071
1631290340658,65777,332263,362025
1631290340668,65767,332279,361995
1631290340678,65751,332211,361957
1631290340688,65750,332269,361969
1631290340698,65749,332261,361965
1631290340708,65755,332266,361975
1631290340718,65747,332232,361968
1631290340728,65744,332211,361943
1631290340738,65731,332197,361957
1631290340748,65731,332199,361931
1631290340758,65734,332180,361919
1631290340768,65726,332208,361918
1631290340778,65726,332207,361920
1631290340788,65730,332219,361920
1631290340798,65732,332175,361923
1631290340808,65742,332275,361973
1631290340818,65759,332223,361948
1631290340828,65753,332244,361959
1631290340838,65772,332271,361922
1631290340848,65791,332211,361942
1631290340858,65776,332293,361956
1631290340868,65772,332300,361941
1631290340878,65801,332288,361957
1631290340888,65810,332343,362001
1631290340898,65840,332323,362013
1631290340908,65863,332358,362018
1631290340918,65858,332363,362041
1631290340928,65880,332349,362034
1631290340938,65889,332382,362080
1631290340948,65908,332333,362072
1631290340958,65921,332397,362127
1631290340968,65943,332383,362101
1631290340978,65946,332405,362134
1631290340988,65971,332467,362102
1631290340998,65975,332440,362070
1631290341008,66011,332431,362130
1631290341018,66013,332458,362151
1631290341028,66031,332472,362152
1631290341038,66037,332453,362139
1631290341048,66057,332474,362132
1631290341058,66071,332483,362213
1631290341068,66086,332510,362182
1631290341078,66105,332512,362168
1631290341088,66123,332531,362202
1631290341098,66139,332534,362179
1631290341108,66149,332576,362209
1631290341118,66165,332552,362176
1631290341128,66180,332566,362189
1631290341138,66201,332623,362224
1631290341148,66205,332543,362177
1631290341158,66198,332556,362206
1631290341168,66187,332519,362163
1631290341178,66180,332487,362217
1631290341188,66183,332452,362159
1631290341198,66154,332390,362133
1631290341208,66141,332389,362144
1631290341218,66119,332372,362148
1631290341228,66105,332359,362117
1631290341238,66071,332356,362150
1631290341248,66052,332324,362102
1631290341258,66027,332295,362114
1631290341268,66007,332232,362046
1631290341278,65992,332259,362050
1631290341288,65982,332207,362032
1631290341298,65956,332174,362053
1631290341308,65949,332176,362015
1631290341318,65913,332144,361992
1631290341328,65904,332186,361977
1631290341338,65860,332105,362005
1631290341348,65860,332052,361960
1631290341358,65841,332049,361936
1631290341368,65806,332073,361929
1631290341378,65803,332080,361928
1631290341388,65796,332055,361897
1631290341398,65776,332076,361860
1631290341408,65761,332014,361882
1631290341418,65760,332037,361909
1631290341428,65744,331982,361880
1631290341438,65741,332027,361848
1631290341448,65731,332007,361867
1631290341458,65731,332000,361875
1631290341468,65740,331990,361873
1631290341478,65730,331951,361851
1631290341488,65709,332004,361838
1631290341498,65694,331934,361844
1631290341508,65689,331985,361786
1631290341518,65678,331913,361764
1631290341528,65665,331871,361752
1631290341538,65645,331925,361773
1631290341548,65666,331910,361753
1631290341558,65656,331877,361716
1631290341568,65650,331902,361745
1631290341578,65643,331892,361672
1631290341588,65640,331906,361718
1631290341598,65640,331896,361702
1631290341608,65644,331904,361705
1631290341618,65653,331896,361664
1631290341628,65657,331933,361706
1631290341638,65669,331917,361690
1631290341648,65674,331978,361652
1631290341658,65689,331941,361720
1631290341668,65694,331975,361677
1631290341678,65692,331953,361689
1631290341688,65717,331968,361717
1631290341698,65727,331941,361709
1631290341708,65731,331960,361692
1631290341718,65749,331946,361703
1631290341728,65769,331979,361726
1631290341738,65775,331935,361751
1631290341748,65787,332018,361714
1631290341758,65797,332028,361717
1631290341768,65814,332035,361751
1631290341778,65839,332028,361724
1631290341788,65855,332028,361765
1631290341798,65857,332042,361765
1631290341808,65860,332026,361698
1631290341818,65892,332052,361744
1631290341828,65894,332060,361731
1631290341838,65905,332129,361728
1631290341848,65930,332138,361812
1631290341858,65957,332092,361746
1631290341868,65966,332117,361769
1631290341878,65985,332171,361818
1631290341888,66005,332146,361809
1631290341898,66008,332143,361819
1631290341908,66037,332187,361815
1631290341918,66066,332236,361857
1631290341928,66079,332237,361858
1631290341938,66109,332279,361861
1631290341948,66137,332291,361870
1631290341958,66150,332249,361918
1631290341968,66167,332254,361918
1631290341978,66167,332238,361946
1631290341988,66182,332242,361949
1631290341998,66172,332219,361928
1631290342008,66164,332219,361921
1631290342018,66154,332166,361929
1631290342028,66141,332126,361951
1631290342038,66098,332144,361927
1631290342048,66094,332096,361930
1631290342058,66080,332063,361949
1631290342068,66065,332097,361921
1631290342078,66044,332097,361918
1631290342088,66047,332041,361897
1631290342098,66028,332021,361870
1631290342108,66013,331989,361861
1631290342118,66007,331967,361857
1631290342128,65990,331935,361890
1631290342138,65978,331953,361899
1631290342148,65961,331912,361879
1631290342158,65942,331895,361864
1631290342168,65933,331910,361892
1631290342178,65916,331909,361867
1631290342188,65908,331849,361852
1631290342198,65899,331855,361869
1631290342208,65882,331843,361882
1631290342218,65869,331840,361874
1631290342228,65867,331858,361866
1631290342238,65854,331855,361860
1631290342248,65847,331828,361857
1631290342258,65844,331789,361850
1631290342268,65845,331766,361822
1631290342278,65819,331761,361844
1631290342288,65833,331754,361805
1631290342298,65817,331765,361778
1631290342308,65807,331728,361762
1631290342318,65800,331720,361751
1631290342328,65785,331743,361807
1631290342338,65782,331735,361758
1631290342348,65779,331752,361738
1631290342358,65768,331740,361695
1631290342368,65773,331715,361736
1631290342378,65771,331720,361737
1631290342388,65763,331701,361735
1631290342398,65745,331718,361725
1631290342408,65754,331702,361709
1631290342418,65748,331727,361675
1631290342428,65777,331762,361695
1631290342438,65779,331725,361667
1631290342448,65776,331746,361675
1631290342458,65793,331722,361700
1631290342468,65803,331790,361686
1631290342478,65786,331753,361689
1631290342488,65820,331793,361689
1631290342498,65809,331727,361661
1631290342508,65828,331752,361716
1631290342518,65836,331808,361693
1631290342528,65841,331839,361717
1631290342538,65854,331818,361700
1631290342548,65868,331753,361660
1631290342558,65872,331793,361694
1631290342568,65887,331833,361685
1631290342578,65901,331797,361724
1631290342588,65904,331811,361701
1631290342598,65925,331832,361705
1631290342608,65947,331857,361746
1631290342618,65962,331886,361716
1631290342628,65966,331903,361716
1631290342638,65982,331890,361736
1631290342648,65984,331893,361730
1631290342658,66007,331913,361732
1631290342668,66000,331892,361718
1631290342678,66028,331926,361685
1631290342688,66031,331927,361676
1631290342698,66043,331925,361712
1631290342708,66062,331931,361701
1631290342718,66075,331993,361705
1631290342728,66085,331936,361728
1631290342738,66102,331973,361701
1631290342748,66111,331994,361721
1631290342758,66122,331983,361751
1631290342768,66135,332051,361707
1631290342778,66168,331971,361718
1631290342788,66181,331984,361753
1631290342798,66175,331977,361724
1631290342808,66156,331951,361740
1631290342818,66173,331890,361733
1631290342828,66159,331896,361722
1631290342838,66142,331862,361720
1631290342848,66122,331837,361699
1631290342858,66092,331859,361686
1631290342868,66076,331862,361687
1631290342878,66067,331808,361723
1631290342888,66074,331792,361715
1631290342898,66057,331858,361715
1631290342908,66034,331820,361745
1631290342918,66006,331805,361741
1631290342928,66019,331789,361707
1631290342938,66000,331793,361712
1631290342948,65964,331800,361755
1631290342958,65970,331814,361696
1631290342968,65950,331783,361650
1631290342978,65951,331701,361680
1631290342988,65933,331732,361695
1631290342998,65907,331761,361645
1631290343008,65903,331776,361702
1631290343018,65914,331790,361734
1631290343028,65900,331846,361796
1631290343038,65914,331915,361899
1631290343048,65906,331967,361939
1631290343058,65903,332050,361994
1631290343068,65908,332112,362072
1631290343078,65911,332169,362135
1631290343088,65906,332227,362178
1631290343098,65927,332303,362207
1631290343108,65926,332381,362318
1631290343118,65933,332408,362342
1631290343128,65942,332470,362402
1631290343138,65960,332528,362486
1631290343148,65967,332555,362523
1631290343158,65980,332634,362606
1631290343168,66030,332646,362689
1631290343178,66035,332744,362739
1631290343188,66067,332757,362785
1631290343198,66093,332823,362837
1631290343208,66114,332953,362900
1631290343218,66144,332974,362938
1631290343228,66168,332977,362964
1631290343238,66187,332984,363023
1631290343248,66220,332978,362975
1631290343258,66241,332991,362988
1631290343268,66267,332940,362978
1631290343278,66289,332909,362972
1631290343288,66291,332829,362922
1631290343298,66334,332817,362881
1631290343308,66339,332767,362837
1631290343318,66350,332754,362815
1631290343328,66361,332697,362795
1631290343338,66375,332705,362808
1631290343348,66390,332696,362775
1631290343358,66408,332719,362777
1631290343368,66418,332637,362777
1631290343378,66437,332637,362766
1631290343388,66470,332620,362750
1631290343398,66496,332595,362760
1631290343408,66527,332637,362755
1631290343418,66567,332599,362800
1631290343428,66610,332604,362775
1631290343438,66648,332553,362773
1631290343448,66644,332534,362767
1631290343458,66656,332514,362749
1631290343468,66662,332410,362673
1631290343478,66663,332478,362662
1631290343488,66673,332424,362650
1631290343498,66684,332393,362611
1631290343508,66688,332337,362526
1631290343518,66697,332356,362557
1631290343528,66717,332330,362499
1631290343538,66706,332273,362493
1631290343548,66727,332254,362535
1631290343558,66720,332290,362441
1631290343568,66739,332225,362421
1631290343578,66746,332248,362394
1631290343588,66727,332209,362374
1631290343598,66721,332189,362315
1631290343608,66733,332147,362277
1631290343618,66729,332098,362220
1631290343628,66733,332036,362199
1631290343638,66729,332066,362162
1631290343648,66710,331979,362111
1631290343658,66696,331930,362137
1631290343668,66666,331902,362066
1631290343678,66645,331860,362055
1631290343688,66606,331779,362005
1631290343698,66586,331760,361942
1631290343708,66549,331726,361970
1631290343718,66519,331714,361896
1631290343728,66491,331674,361908
1631290343738,66452,331604,361851
1631290343748,66427,331604,361837
1631290343758,66398,331571,361777
1631290343768,66360,331553,361762
1631290343778,66338,331507,361723
1631290343788,66304,331438,361689
1631290343798,66258,331420,361610
1631290343808,66231,331437,361626
1631290343818,66195,331388,361594
1631290343828,66168,331362,361549
1631290343838,66144,331391,361532
1631290343848,66107,331323,361498
1631290343858,66095,331327,361470
1631290343868,66076,331327,361437
1631290343878,66071,331317,361438
1631290343888,66086,331299,361469
1631290343898,66084,331306,361461
1631290343908,66080,331307,361430
1631290343918,66074,331305,361419
1631290343928,66063,331273,361461
1631290343938,66060,331292,361471
1631290343948,66079,331284,361450
1631290343958,66070,331299,361405
1631290343968,66055,331275,361390
1631290343978,66045,331270,361362
1631290343988,66044,331273,361355
1631290343998,66017,331226,361364
1631290344008,66008,331266,361335
1631290344018,65986,331229,361301
1631290344028,65981,331207,361296
1631290344038,65992,331254,361278
1631290344048,65971,331194,361241
1631290344058,65977,331215,361190
1631290344068,65963,331212,361183
1631290344078,65963,331219,361166
1631290344088,65962,331160,361166
1631290344098,65976,331154,361117
1631290344108,65955,331167,361116
1631290344118,65959,331165,361114
1631290344128,65962,331192,361111
1631290344138,65954,331159,361034
1631290344148,65961,331206,361072
1631290344158,65965,331166,361066
1631290344168,65957,331194,361029
1631290344178,65963,331198,361056
1631290344188,65966,331214,361024
1631290344198,65972,331147,361027
1631290344208,65993,331195,361008
1631290344218,65980,331200,360995
1631290344228,65993,331171,360977
1631290344238,65965,331192,360951
1631290344248,65976,331188,360904
1631290344258,65963,331178,360895
1631290344268,65983,331183,360854
1631290344278,65976,331221,360865
1631290344288,65969,331170,360880
1631290344298,65998,331205,360839
1631290344308,65995,331264,360850
1631290344318,65988,331232,360838
1631290344328,66001,331230,360833
1631290344338,66014,331277,360862
1631290344348,66014,331297,360860
1631290344358,66021,331305,360848
1631290344368,66032,331290,360831
1631290344378,66025,331313,360813
1631290344388,66039,331334,360814
1631290344398,66028,331342,360856
1631290344408,66073,331360,360847
1631290344418,66077,331416,360889
1631290344428,66105,331434,360880
1631290344438,66104,331404,360883
1631290344448,66120,331468,360863
1631290344458,66123,331470,360851
1631290344468,66133,331456,360844
1631290344478,66137,331422,360871
1631290344488,66142,331418,360898
1631290344498,66144,331439,360896
1631290344508,66149,331434,360869
1631290344518,66141,331423,360916
1631290344528,66140,331463,360895
1631290344538,66114,331435,360902
1631290344548,66117,331468,360918
1631290344558,66115,331424,360995
1631290344568,66087,331483,360958
1631290344578,66081,331416,360983
1631290344588,66083,331448,360968
1631290344598,66077,331419,361022
1631290344608,66082,331451,361032
1631290344618,66073,331499,361018
1631290344628,66078,331442,361029
1631290344638,66086,331433,361089
1631290344648,66108,331467,361143
1631290344658,66133,331448,361204
1631290344668,66148,331471,361246
1631290344678,66159,331506,361336
1631290344688,66160,331545,361324
1631290344698,66158,331506,361366
1631290344708,66177,331533,361346
1631290344718,66183,331509,361436
1631290344728,66173,331520,361442
1631290344738,66194,331588,361513
1631290344748,66223,331635,361514
1631290344758,66232,331671,361599
1631290344768,66248,331712,361678
1631290344778,66267,331698,361655
1631290344788,66267,331711,361720
1631290344798,66276,331691,361734
1631290344808,66279,331730,361792
1631290344818,66278,331793,361825
1631290344828,66290,331814,361880
1631290344838,66287,331768,361866
1631290344848,66296,331821,361912
1631290344858,66302,331875,361940
1631290344868,66304,331850,361961
1631290344878,66309,331873,361928
1631290344888,66295,331837,361912
1631290344898,66288,331854,361878
1631290344908,66297,331894,361898
1631290344918,66299,331888,361873
1631290344928,66292,331828,361862
1631290344938,66309,331826,361852
1631290344948,66312,331857,361854
1631290344958,66323,331900,361850
1631290344968,66335,331915,361862
1631290344978,66357,331888,361909
1631290344988,66367,331916,361879
1631290344998,66369,331901,361837
1631290345008,66364,331942,361867
1631290345018,66369,331920,361846
1631290345028,66378,331954,361832
1631290345038,66373,331916,361814
1631290345048,66373,331953,361821
1631290345058,66388,331984,361805
1631290345068,66391,331974,361844
1631290345078,66402,331993,361861
1631290345088,66416,331970,361833
1631290345098,66426,332006,361863
1631290345108,66438,332025,361859
1631290345118,66451,332057,361865
1631290345128,66466,332051,361914
1631290345138,66482,332086,361909
1631290345148,66499,332128,361897
1631290345158,66521,332149,361878
1631290345168,66533,332167,361963
1631290345178,66537,332143,361937
1631290345188,66562,332201,361938
1631290345198,66582,332187,361976
1631290345208,66576,332224,361990
1631290345218,66606,332297,362010
1631290345228,66624,332307,362027
1631290345238,66634,332269,362013
1631290345248,66666,332309,362036
1631290345258,66681,332318,362044
1631290345268,66716,332339,362051
1631290345278,66728,332372,362083
1631290345288,66760,332385,362054
1631290345298,66776,332339,362073
1631290345308,66770,332367,362071
1631290345318,66785,332392,362100
1631290345328,66786,332393,362097
1631290345338,66796,332302,362077
1631290345348,66786,332296,362115
1631290345358,66774,332318,362111
1631290345368,66777,332225,362080
1631290345378,66759,332267,362076
1631290345388,66727,332251,362070
1631290345398,66708,332231,362083
1631290345408,66711,332220,362095
1631290345418,66708,332168,362092
1631290345428,66684,332235,362106
1631290345438,66670,332227,362119
1631290345448,66671,332198,362130
1631290345458,66663,332193,362110
1631290345468,66639,332233,362133
1631290345478,66626,332226,362127
1631290345488,66606,332177,362126
1631290345498,66602,332235,362122
1631290345508,66586,332159,362109
1631290345518,66581,332212,362124
1631290345528,66579,332227,362071
1631290345538,66560,332250,362155
1631290345548,66559,332210,362139
1631290345558,66555,332209,362122
1631290345568,66545,332203,362122
1631290345578,66560,332259,362164
1631290345588,66563,332245,362112
1631290345598,66568,332270,362198
1631290345608,66562,332282,362177
1631290345618,66574,332312,362181
1631290345628,66572,332254,362173
1631290345638,66565,332276,362241
1631290345648,66563,332239,362202
1631290345658,66565,332286,362204
1631290345668,66577,332253,362214
1631290345678,66582,332288,362240
1631290345688,66603,332279,362190
1631290345698,66599,332237,362185
1631290345708,66597,332256,362245
1631290345718,66607,332291,362216
1631290345728,66606,332284,362266
1631290345738,66607,332294,362281
1631290345748,66627,332316,362229
1631290345758,66616,332335,362225
1631290345768,66619,332356,362280
1631290345778,66626,332310,362241
1631290345788,66628,332346,362244
1631290345798,66637,332319,362263
1631290345808,66649,332370,362213
1631290345818,66647,332310,362249
1631290345828,66662,332331,362202
1631290345838,66663,332313,362203
1631290345848,66661,332357,362213
1631290345858,66647,332319,362185
1631290345868,66667,332309,362199
1631290345878,66677,332353,362172
1631290345888,66684,332335,362163
1631290345898,66678,332309,362177
1631290345908,66707,332391,362207
1631290345918,66721,332371,362188
1631290345928,66720,332345,362189
1631290345938,66741,332403,362214
1631290345948,66757,332349,362234
1631290345958,66759,332413,362201
1631290345968,66766,332436,362192
1631290345978,66777,332441,362254
1631290345988,66796,332420,362212
1631290345998,66812,332439,362284
1631290346008,66823,332441,362199
1631290346018,66827,332426,362235
1631290346028,66840,332475,362226
1631290346038,66848,332488,362236
1631290346048,66864,332512,362237
1631290346058,66891,332489,362218
1631290346068,66897,332534,362244
1631290346078,66887,332536,362228
1631290346088,66916,332557,362200
1631290346098,66931,332525,362243
1631290346108,66941,332565,362302
1631290346118,66959,332594,362251
1631290346128,66956,332542,362257
1631290346138,66944,332493,362341
1631290346148,66943,332474,362269
1631290346158,66940,332430,362274
1631290346168,66924,332440,362268
1631290346178,66911,332407,362229
1631290346188,66868,332377,362252
1631290346198,66857,332322,362232
1631290346208,66850,332395,362228
1631290346218,66838,332328,362226
1631290346228,66814,332340,362202
1631290346238,66820,332348,362223
1631290346248,66800,332313,362251
1631290346258,66790,332297,362232
1631290346268,66784,332305,362213
1631290346278,66779,332282,362255
1631290346288,66777,332330,362243
1631290346298,66755,332296,362195
1631290346308,66757,332298,362173
1631290346318,66744,332243,362213
1631290346328,66736,332242,362176
1631290346338,66713,332256,362133
1631290346348,66704,332230,362154
1631290346358,66672,332194,362076
1631290346368,66676,332178,362090
1631290346378,66668,332172,362104
1631290346388,66648,332204,362037
1631290346398,66647,332161,362050
1631290346408,66654,332170,362068
1631290346418,66646,332166,362063
1631290346428,66637,332158,362065
1631290346438,66627,332177,362077
1631290346448,66619,332150,362023
1631290346458,66628,332178,362065
1631290346468,66642,332101,362035
1631290346478,66652,332225,362013
1631290346488,66635,332196,362019
1631290346498,66642,332206,362049
1631290346508,66646,332193,362000
1631290346518,66638,332226,362061
1631290346528,66663,332230,362061
1631290346538,66662,332251,362075
1631290346548,66689,332211,362093
1631290346558,66674,332238,362077
1631290346568,66696,332222,362072
1631290346578,66697,332255,362067
1631290346588,66687,332232,362051
1631290346598,66686,332216,362068
1631290346608,66702,332275,362086
1631290346618,66709,332297,362082
1631290346628,66723,332290,362047
1631290346638,66729,332311,362055
1631290346648,66746,332323,362078
1631290346658,66745,332331,362017
1631290346668,66761,332280,362068
1631290346678,66749,332326,362059
1631290346688,66759,332310,362054
1631290346698,66770,332338,362044
1631290346708,66778,332347,362073
1631290346718,66794,332384,362067
1631290346728,66804,332410,362072
1631290346738,66832,332375,362073
1631290346748,66845,332389,362107
1631290346758,66854,332415,362088
1631290346768,66853,332434,362086
1631290346778,66873,332390,362086
1631290346788,66880,332435,362097
1631290346798,66908,332480,362064
1631290346808,66919,332435,362079
1631290346818,66935,332451,362113
1631290346828,66956,332427,362029
1631290346838,66962,332467,362076
1631290346848,66959,332518,362045
1631290346858,66976,332511,362103
1631290346868,66998,332509,362093
1631290346878,67021,332537,362107
1631290346888,67040,332548,362103
1631290346898,67048,332548,362146
1631290346908,67049,332508,362139
1631290346918,67041,332469,362179
1631290346928,67043,332499,362213
1631290346938,67024,332441,362167
1631290346948,67020,332458,362157
1631290346958,67012,332458,362148
1631290346968,67007,332446,362153
1631290346978,66972,332403,362163
1631290346988,66970,332395,362116
1631290346998,66965,332421,362150
1631290347008,66940,332372,362114
1631290347018,66930,332408,362134
1631290347028,66938,332412,362110
1631290347038,66920,332400,362105
1631290347048,66916,332367,362141
1631290347058,66907,332350,362125
1631290347068,66896,332345,362131
1631290347078,66876,332334,362112
1631290347088,66874,332358,362101
1631290347098,66864,332365,362103
1631290347108,66853,332316,362055
1631290347118,66867,332366,362101
1631290347128,66859,332353,362109
1631290347138,66859,332329,362095
1631290347148,66824,332337,362113
1631290347158,66852,332329,362093
1631290347168,66835,332356,362062
1631290347178,66834,332342,362056
1631290347188,66853,332370,362057
1631290347198,66823,332392,362093
1631290347208,66839,332307,362118
1631290347218,66849,332340,362090
1631290347228,66833,332311,362095
1631290347238,66832,332337,362089
1631290347248,66826,332354,362100
1631290347258,66824,332371,362107
1631290347268,66830,332375,362114
1631290347278,66842,332405,362097
1631290347288,66841,332382,362086
1631290347298,66854,332410,362112
1631290347308,66851,332393,362123
1631290347318,66875,332391,362089
1631290347328,66893,332399,362122
1631290347338,66887,332420,362160
1631290347348,66908,332440,362101
1631290347358,66898,332439,362196
1631290347368,66907,332493,362190
1631290347378,66922,332457,362153
1631290347388,66922,332522,362184
1631290347398,66929,332442,362185
1631290347408,66942,332510,362184
1631290347418,66954,332455,362172
1631290347428,66963,332538,362199
1631290347438,66972,332551,362235
1631290347448,66996,332584,362216
1631290347458,67007,332569,362223
1631290347468,67025,332567,362246
1631290347478,67025,332575,362210
1631290347488,67034,332606,362263
1631290347498,67037,332629,362230
1631290347508,67070,332628,362268
1631290347518,67068,332643,362212
1631290347528,67092,332672,362236
1631290347538,67119,332672,362247
1631290347548,67127,332663,362279
1631290347558,67138,332658,362291
1631290347568,67155,332766,362335
1631290347578,67164,332729,362276
1631290347588,67176,332713,362332
1631290347598,67189,332697,362352
1631290347608,67206,332765,362326
1631290347618,67242,332748,362376
1631290347628,67249,332799,362342
1631290347638,67279,332822,362352
1631290347648,67285,332851,362386
1631290347658,67306,332808,362391
1631290347668,67334,332803,362389
1631290347678,67347,332845,362412
1631290347688,67347,332778,362430
1631290347698,67352,332800,362417
1631290347708,67345,332746,362411
1631290347718,67315,332772,362403
1631290347728,67304,332743,362410
1631290347738,67276,332674,362394
1631290347748,67252,332699,362378
1631290347758,67238,332663,362344
1631290347768,67248,332673,362360
1631290347778,67206,332649,362326
1631290347788,67214,332689,362294
1631290347798,67181,332650,362343
1631290347808,67173,332659,362350
1631290347818,67172,332662,362344
1631290347828,67157,332640,362326
1631290347838,67153,332623,362286
1631290347848,67152,332601,362300
1631290347858,67152,332589,362293
1631290347868,67130,332663,362265
1631290347878,67126,332598,362286
1631290347888,67123,332608,362305
1631290347898,67115,332693,362305
1631290347908,67110,332659,362294
1631290347918,67120,332650,362291
1631290347928,67110,332746,362318
1631290347938,67113,332697,362300
1631290347948,67117,332693,362334
1631290347958,67115,332699,362320
1631290347968,67127,332705,362279
1631290347978,67115,332692,362279
1631290347988,67124,332689,362308
1631290347998,67129,332640,362312
1631290348008,67127,332641,362333
1631290348018,67110,332679,362312
1631290348028,67134,332666,362325
1631290348038,67124,332662,362324
1631290348048,67118,332710,362314
1631290348058,67121,332710,362331
1631290348068,67127,332697,362330
1631290348078,67131,332714,362330
1631290348088,67132,332728,362337
1631290348098,67139,332723,362363
1631290348108,67157,332750,362317
1631290348118,67167,332776,362348
1631290348128,67176,332702,362353
1631290348138,67179,332815,362367
1631290348148,67181,332765,362344
1631290348158,67172,332791,362355
1631290348168,67200,332776,362377
1631290348178,67216,332785,362346
1631290348188,67223,332810,362310
1631290348198,67218,332804,362326
1631290348208,67228,332848,362339
1631290348218,67243,332842,362390
1631290348228,67247,332870,362364
1631290348238,67258,332869,362380
1631290348248,67263,332895,362377
1631290348258,67291,332891,362395
1631290348268,67283,332951,362372
1631290348278,67304,332926,362381
1631290348288,67342,332949,362397
1631290348298,67335,332937,362458
1631290348308,67338,332963,362379
1631290348318,67360,332964,362406
1631290348328,67376,333008,362447
1631290348338,67386,332962,362424
1631290348348,67394,333040,362464
1631290348358,67408,333019,362427
1631290348368,67428,333034,362451
1631290348378,67447,333061,362471
1631290348388,67439,333118,362463
1631290348398,67458,333127,362469
1631290348408,67473,333088,362465
1631290348418,67485,333085,362500
1631290348428,67505,333097,362461
1631290348438,67522,333111,362507
1631290348448,67514,333072,362511
1631290348458,67508,333040,362505
1631290348468,67495,333034,362527
1631290348478,67482,332997,362483
1631290348488,67471,333020,362506
1631290348498,67455,332995,362507
1631290348508,67438,332958,362504
1631290348518,67431,332945,362464
1631290348528,67395,332916,362486
1631290348538,67395,332939,362493
1631290348548,67381,332923,362499
1631290348558,67373,332958,362482
1631290348568,67363,332968,362484
1631290348578,67367,332937,362473
1631290348588,67359,332885,362496
1631290348598,67341,332939,362484
1631290348608,67346,332888,362498
1631290348618,67322,332903,362462
1631290348628,67324,332915,362459
1631290348638,67320,332943,362469
1631290348648,67317,332906,362455
1631290348658,67315,332932,362487
1631290348668,67295,332924,362442
1631290348678,67310,332912,362474
1631290348688,67293,332907,362487
1631290348698,67287,332938,362439
1631290348708,67289,332925,362434
1631290348718,67290,332935,362453
1631290348728,67286,332893,362430
1631290348738,67291,332850,362429
1631290348748,67283,332895,362457
1631290348758,67272,332896,362466
1631290348768,67281,332889,362464
1631290348778,67276,332924,362428
1631290348788,67271,332863,362449
1631290348798,67269,332891,362465
1631290348808,67276,332875,362445
1631290348818,67279,332928,362479
1631290348828,67285,332923,362469
1631290348838,67287,332945,362459
1631290348848,67277,332944,362466
1631290348858,67282,332980,362473
1631290348868,67291,332973,362470
1631290348878,67303,332944,362459
1631290348888,67312,332983,362477
1631290348898,67315,332941,362436
1631290348908,67326,332986,362467
1631290348918,67320,333016,362488
1631290348928,67335,333003,362448
1631290348938,67355,333022,362499
1631290348948,67353,333044,362475
1631290348958,67357,333011,362460
1631290348968,67376,333077,362501
1631290348978,67369,333042,362499
1631290348988,67391,333067,362488
1631290348998,67402,333096,362473
1631290349008,67412,333085,362507
1631290349018,67412,333103,362514
1631290349028,67415,333080,362535
1631290349038,67427,333077,362494
1631290349048,67452,333120,362494
1631290349058,67449,333135,362498
1631290349068,67476,333122,362542
1631290349078,67474,333192,362551
1631290349088,67502,333163,362514
1631290349098,67503,333165,362545
1631290349108,67514,333179,362513
1631290349118,67531,333201,362558
1631290349128,67530,333222,362556
1631290349138,67548,333203,362584
1631290349148,67561,333255,362585
1631290349158,67574,333254,362562
1631290349168,67587,333263,362591
1631290349178,67581,333285,362613
1631290349188,67605,333286,362603
1631290349198,67629,333286,362628
1631290349208,67640,333308,362610
1631290349218,67655,333310,362634
1631290349228,67661,333298,362639
1631290349238,67685,333288,362666
1631290349248,67655,333292,362687
1631290349258,67645,333212,362666
1631290349268,67645,333164,362654
1631290349278,67611,333132,362608
1631290349288,67594,333165,362597
1631290349298,67578,333116,362650
1631290349308,67543,333147,362622
1631290349318,67538,333099,362653
1631290349328,67509,333089,362604
1631290349338,67506,333094,362626
1631290349348,67475,333078,362583
1631290349358,67463,333063,362568
1631290349368,67452,333057,362621
1631290349378,67422,333050,362602
1631290349388,67423,333072,362613
1631290349398,67402,333072,362538
1631290349408,67378,333037,362578
1631290349418,67368,333048,362519
1631290349428,67343,333006,362516
1631290349438,67330,333036,362516
1631290349448,67326,332989,362501
1631290349458,67318,333005,362505
1631290349468,67294,332952,362507
1631290349478,67286,332980,362480
1631290349488,67261,332927,362469
1631290349498,67252,332929,362472
1631290349508,67226,332946,362448
1631290349518,67220,332919,362414
1631290349528,67217,332899,362496
1631290349538,67192,332952,362425
1631290349548,67199,332933,362477
1631290349558,67178,332855,362420
1631290349568,67175,332901,362440
1631290349578,67177,332882,362413
1631290349588,67156,332898,362372
1631290349598,67144,332886,362416
1631290349608,67144,332870,362365
1631290349618,67138,332876,362351
1631290349628,67130,332896,362387
1631290349638,67117,332871,362392
1631290349648,67110,332921,362344
1631290349658,67121,332884,362351
1631290349668,67116,332877,362358
1631290349678,67104,332890,362374
1631290349688,67108,332870,362341
1631290349698,67109,332891,362314
1631290349708,67105,332921,362302
1631290349718,67122,332881,362332
1631290349728,67120,332842,362364
1631290349738,67126,332923,362356
1631290349748,67134,332911,362344
1631290349758,67120,332888,362298
1631290349768,67128,332893,362279
1631290349778,67130,332916,362345
1631290349788,67126,332927,362325
1631290349798,67130,332943,362316
1631290349808,67127,332920,362341
1631290349818,67146,332928,362285
1631290349828,67142,332942,362310
1631290349838,67144,332943,362331
1631290349848,67147,332932,362294
1631290349858,67167,332952,362262
1631290349868,67171,332977,362315
1631290349878,67177,332986,362323
1631290349888,67169,332971,362283
1631290349898,67185,332990,362266
1631290349908,67186,332977,362276
1631290349918,67205,333046,362258
1631290349928,67206,333008,362313
1631290349938,67214,333015,362349
1631290349948,67231,333018,362281
1631290349958,67245,333048,362317
1631290349968,67240,333032,362285
1631290349978,67255,333017,362307
1631290349988,67250,333080,362278
1631290349998,67269,333041,362306
1631290350008,67279,333018,362285
1631290350018,67294,333081,362308
1631290350028,67279,333045,362285
1631290350038,67256,333022,362291
1631290350048,67245,332973,362331
1631290350058,67217,332879,362258
1631290350068,67185,332923,362253
1631290350078,67153,332849,362230
1631290350088,67121,332820,362237
1631290350098,67085,332816,362213
1631290350108,67077,332778,362194
1631290350118,67043,332805,362180
1631290350128,67031,332721,362164
1631290350138,66999,332824,362166
1631290350148,66979,332758,362146
1631290350158,66940,332729,362141
1631290350168,66920,332714,362184
1631290350178,66903,332715,362120
1631290350188,66887,332686,362070
1631290350198,66862,332681,362066
1631290350208,66841,332656,362083
1631290350218,66825,332670,362059
1631290350228,66801,332643,362041
1631290350238,66787,332628,362042
1631290350248,66756,332594,362050
1631290350258,66741,332595,361991
1631290350268,66726,332586,361970
1631290350278,66723,332573,361996
1631290350288,66710,332610,361992
1631290350298,66701,332580,362024
1631290350308,66699,332563,361952
1631290350318,66672,332552,361956
1631290350328,66662,332545,361935
1631290350338,66648,332530,361912
1631290350348,66632,332543,361923
1631290350358,66643,332562,361932
1631290350368,66622,332544,361890
1631290350378,66599,332540,361877
1631290350388,66593,332492,361893
1631290350398,66600,332498,361900
1631290350408,66576,332451,361832
1631290350418,66568,332509,361867
1631290350428,66571,332516,361831
1631290350438,66570,332504,361822
1631290350448,66570,332507,361808
1631290350458,66547,332508,361782
1631290350468,66558,332471,361793
1631290350478,66547,332458,361795
1631290350488,66545,332473,361786
1631290350498,66552,332484,361768
1631290350508,66543,332495,361790
1631290350518,66555,332528,361798
1631290350528,66574,332540,361797
1631290350538,66576,332512,361791
1631290350548,66570,332514,361792
1631290350558,66574,332493,361772
1631290350568,66562,332512,361759
1631290350578,66569,332508,361787
1631290350588,66577,332545,361765
1631290350598,66584,332521,361762
1631290350608,66584,332533,361753
1631290350618,66591,332566,361736
1631290350628,66588,332538,361712
1631290350638,66593,332558,361755
1631290350648,66588,332553,361776
1631290350658,66603,332524,361749
1631290350668,66604,332558,361733
1631290350678,66614,332576,361757
1631290350688,66638,332590,361725
1631290350698,66634,332625,361731
1631290350708,66631,332607,361722
1631290350718,66645,332617,361799
1631290350728,66655,332592,361748
1631290350738,66662,332621,361751
1631290350748,66687,332627,361743
1631290350758,66698,332634,361737
1631290350768,66704,332633,361760
1631290350778,66711,332675,361761
1631290350788,66722,332701,361772
1631290350798,66744,332694,361772
1631290350808,66750,332668,361715
1631290350818,66748,332668,361748
1631290350828,66755,332641,361807
1631290350838,66742,332629,361771
1631290350848,66740,332592,361802
1631290350858,66730,332614,361762
1631290350868,66702,332533,361735
1631290350878,66669,332526,361728
1631290350888,66626,332497,361747
1631290350898,66608,332499,361703
1631290350908,66593,332502,361696
1631290350918,66573,332464,361717
1631290350928,66547,332456,361707
1631290350938,66536,332442,361669
1631290350948,66547,332415,361682
1631290350958,66489,332374,361622
1631290350968,66484,332369,361671
1631290350978,66463,332399,361634
1631290350988,66450,332366,361647
1631290350998,66428,332336,361595
1631290351008,66424,332338,361609
1631290351018,66418,332328,361650
1631290351028,66389,332335,361665
1631290351038,66380,332308,361593
1631290351048,66373,332253,361584
1631290351058,66353,332282,361556
1631290351068,66346,332281,361588
1631290351078,66335,332298,361599
1631290351088,66331,332346,361558
1631290351098,66314,332334,361573
1631290351108,66319,332300,361560
1631290351118,66299,332274,361521
1631290351128,66296,332292,361546
1631290351138,66278,332216,361520
1631290351148,66274,332252,361542
1631290351158,66267,332246,361514
1631290351168,66262,332218,361507
1631290351178,66261,332252,361522
1631290351188,66238,332237,361498
1631290351198,66256,332213,361511
1631290351208,66245,332238,361512
1631290351218,66234,332246,361487
1631290351228,66233,332216,361513
1631290351238,66250,332234,361473
1631290351248,66248,332224,361488
1631290351258,66242,332257,361489
1631290351268,66247,332258,361463
1631290351278,66263,332274,361483
1631290351288,66258,332228,361490
1631290351298,66258,332254,361467
1631290351308,66257,332261,361446
1631290351318,66252,332260,361492
1631290351328,66268,332263,361521
1631290351338,66273,332275,361456
1631290351348,66277,332286,361449
1631290351358,66280,332273,361464
1631290351368,66298,332336,361518
1631290351378,66291,332309,361475
1631290351388,66303,332289,361494
1631290351398,66314,332311,361476
1631290351408,66327,332335,361468
1631290351418,66330,332335,361449
1631290351428,66344,332347,361488
1631290351438,66345,332333,361458
1631290351448,66346,332311,361502
1631290351458,66351,332336,361499
1631290351468,66358,332374,361498
1631290351478,66372,332365,361497
1631290351488,66390,332404,361530
1631290351498,66391,332407,361547
1631290351508,66419,332395,361498
1631290351518,66431,332449,361520
1631290351528,66438,332433,361544
1631290351538,66432,332451,361478
1631290351548,66442,332464,361489
1631290351558,66469,332456,361517
1631290351568,66482,332477,361511
1631290351578,66493,332427,361531
1631290351588,66508,332535,361537
1631290351598,66528,332491,361533
1631290351608,66535,332531,361522
1631290351618,66553,332479,361588
1631290351628,66546,332438,361578
1631290351638,66542,332442,361550
1631290351648,66545,332402,361556
1631290351658,66535,332357,361547
1631290351668,66476,332347,361516
1631290351678,66474,332381,361586
1631290351688,66446,332303,361556
1631290351698,66432,332308,361526
1631290351708,66414,332332,361477
1631290351718,66393,332326,361477
1631290351728,66389,332249,361510
1631290351738,66384,332263,361521
1631290351748,66367,332276,361507
1631290351758,66342,332287,361490
1631290351768,66343,332273,361487
1631290351778,66333,332280,361472
1631290351788,66330,332274,361480
1631290351798,66316,332234,361454
1631290351808,66303,332222,361479
1631290351818,66302,332237,361467
1631290351828,66291,332204,361453
1631290351838,66298,332241,361429
1631290351848,66279,332266,361504
1631290351858,66288,332264,361453
1631290351868,66277,332208,361427
1631290351878,66272,332229,361431
1631290351888,66255,332186,361421
1631290351898,66257,332236,361404
1631290351908,66255,332177,361408
1631290351918,66242,332195,361435
1631290351928,66241,332196,361393
1631290351938,66235,332197,361393
1631290351948,66231,332231,361402
1631290351958,66218,332221,361433
1631290351968,66224,332167,361439
1631290351978,66212,332180,361403
1631290351988,66231,332182,361393
1631290351998,66226,332171,361411
1631290352008,66223,332195,361395
1631290352018,66223,332196,361397
1631290352028,66230,332208,361433
1631290352038,66237,332233,361404
1631290352048,66226,332183,361409
1631290352058,66244,332210,361412
1631290352068,66254,332236,361381
1631290352078,66253,332191,361386
1631290352088,66260,332243,361352
1631290352098,66274,332209,361384
1631290352108,66274,332220,361397
1631290352118,66280,332227,361377
1631290352128,66275,332260,361338
1631290352138,66292,332278,361412
1631290352148,66300,332288,361422
1631290352158,66310,332266,361394
1631290352168,66299,332262,361373
1631290352178,66331,332316,361422
1631290352188,66331,332282,361397
1631290352198,66339,332290,361336
1631290352208,66358,332315,361407
1631290352218,66354,332362,361434
1631290352228,66380,332377,361403
1631290352238,66389,332339,361411
1631290352248,66399,332335,361411
1631290352258,66401,332373,361451
1631290352268,66410,332375,361421
1631290352278,66434,332370,361418
1631290352288,66431,332348,361444
1631290352298,66452,332424,361465
1631290352308,66477,332438,361477
1631290352318,66488,332440,361481
1631290352328,66493,332500,361483
1631290352338,66522,332460,361471
1631290352348,66516,332478,361477
1631290352358,66540,332511,361472
1631290352368,66558,332460,361470
1631290352378,66563,332529,361496
1631290352388,66589,332538,361521
1631290352398,66584,332570,361504
1631290352408,66618,332505,361516
1631290352418,66635,332514,361512
1631290352428,66620,332470,361525
1631290352438,66613,332511,361549
1631290352448,66613,332454,361514
1631290352458,66596,332411,361518
1631290352468,66586,332443,361516
1631290352478,66555,332355,361512
1631290352488,66526,332384,361516
1631290352498,66526,332335,361483
1631290352508,66517,332314,361483
1631290352518,66493,332383,361476
1631290352528,66480,332375,361452
1631290352538,66474,332323,361464
1631290352548,66453,332346,361452
1631290352558,66450,332321,361468
1631290352568,66443,332329,361471
1631290352578,66422,332357,361427
1631290352588,66418,332256,361414
1631290352598,66404,332288,361453
1631290352608,66408,332340,361454
1631290352618,66409,332267,361428
1631290352628,66403,332328,361426
1631290352638,66391,332254,361398
1631290352648,66381,332346,361450
1631290352658,66377,332344,361416
1631290352668,66378,332299,361432
1631290352678,66383,332330,361419
1631290352688,66405,332297,361468
1631290352698,66375,332279,361440
1631290352708,66368,332321,361433
1631290352718,66362,332304,361464
1631290352728,66362,332295,361433
1631290352738,66354,332292,361396
1631290352748,66370,332272,361406
1631290352758,66353,332297,361420
1631290352768,66348,332286,361422
1631290352778,66341,332271,361412
1631290352788,66366,332213,361444
1631290352798,66359,332303,361443
1631290352808,66371,332284,361416
1631290352818,66350,332315,361447
1631290352828,66362,332281,361421
1631290352838,66365,332304,361429
1631290352848,66366,332281,361381
1631290352858,66387,332238,361442
1631290352868,66394,332298,361399
1631290352878,66378,332340,361431
1631290352888,66404,332290,361439
1631290352898,66397,332317,361457
1631290352908,66393,332338,361390
1631290352918,66402,332365,361395
1631290352928,66421,332345,361408
1631290352938,66411,332353,361412
1631290352948,66433,332350,361406
1631290352958,66444,332353,361450
1631290352968,66427,332375,361430
1631290352978,66463,332379,361415
1631290352988,66450,332351,361419
1631290352998,66454,332378,361462
1631290353008,66472,332380,361449
1631290353018,66487,332365,361445
1631290353028,66485,332353,361466
1631290353038,66492,332459,361490
1631290353048,66519,332388,361446
1631290353058,66529,332413,361450
1631290353068,66516,332418,361496
1631290353078,66536,332476,361443
1631290353088,66548,332461,361477
1631290353098,66547,332430,361499
1631290353108,66590,332458,361498
1631290353118,66603,332524,361456
1631290353128,66591,332481,361500
1631290353138,66616,332560,361500
1631290353148,66611,332558,361505
1631290353158,66635,332529,361508
1631290353168,66646,332580,361539
1631290353178,66666,332550,361514
1631290353188,66679,332582,361528
1631290353198,66666,332561,361559
1631290353208,66691,332540,361546
1631290353218,66681,332528,361555
1631290353228,66661,332492,361559
1631290353238,66648,332499,361512
1631290353248,66630,332432,361507
1631290353258,66610,332435,361548
1631290353268,66600,332410,361513
1631290353278,66553,332399,361508
1631290353288,66542,332323,361518
1631290353298,66519,332330,361512
1631290353308,66502,332330,361508
1631290353318,66491,332350,361504
1631290353328,66457,332338,361479
1631290353338,66459,332315,361507
1631290353348,66444,332292,361491
1631290353358,66426,332291,361467
1631290353368,66415,332274,361474
1631290353378,66410,332240,361435
1631290353388,66379,332216,361464
1631290353398,66361,332242,361410
1631290353408,66327,332186,361378
1631290353418,66287,332130,361335
1631290353428,66291,332144,361302
1631290353438,66265,332150,361296
1631290353448,66240,332123,361205
1631290353458,66215,332064,361172
1631290353468,66193,332046,361106
1631290353478,66158,331999,361066
1631290353488,66134,331995,361060
1631290353498,66116,331984,361024
1631290353508,66107,332010,361031
1631290353518,66117,331982,360992
1631290353528,66118,331963,360999
1631290353538,66117,331956,360998
1631290353548,66089,331955,360996
1631290353558,66116,331938,360998
1631290353568,66101,331951,360996
1631290353578,66101,331989,360974
1631290353588,66098,331980,361054
1631290353598,66112,331973,361013
1631290353608,66107,331889,360995
1631290353618,66109,331951,361038
1631290353628,66132,331997,361052
1631290353638,66132,332009,361084
1631290353648,66146,332008,361150
1631290353658,66171,332029,361101
1631290353668,66170,332028,361205
1631290353678,66201,332052,361163
1631290353688,66196,332064,361214
1631290353698,66217,332074,361200
1631290353708,66213,332116,361219
1631290353718,66224,332118,361219
1631290353728,66228,332097,361208
1631290353738,66238,332113,361249
1631290353748,66272,332157,361298
1631290353758,66268,332194,361295
1631290353768,66287,332121,361328
1631290353778,66297,332156,361308
1631290353788,66287,332204,361318
1631290353798,66297,332165,361301
1631290353808,66300,332239,361306
1631290353818,66320,332209,361342
1631290353828,66329,332237,361321
1631290353838,66336,332184,361298
1631290353848,66346,332209,361293
1631290353858,66358,332242,361292
1631290353868,66363,332261,361324
1631290353878,66357,332249,361315
1631290353888,66369,332251,361353
1631290353898,66382,332293,361336
1631290353908,66381,332269,361357
1631290353918,66402,332259,361346
1631290353928,66413,332294,361344
1631290353938,66427,332329,361353
1631290353948,66435,332328,361384
1631290353958,66444,332292,361338
1631290353968,66442,332368,361355
1631290353978,66479,332411,361360
1631290353988,66478,332404,361386
1631290353998,66501,332374,361391
1631290354008,66508,332376,361391
1631290354018,66516,332411,361379
1631290354028,66504,332409,361414
1631290354038,66505,332352,361387
1631290354048,66490,332331,361402
1631290354058,66472,332308,361388
1631290354068,66450,332227,361354
1631290354078,66429,332218,361323
1631290354088,66396,332142,361329
1631290354098,66376,332166,361273
1631290354108,66346,332181,361307
1631290354118,66317,332104,361329
1631290354128,66299,332124,361283
1631290354138,66278,332139,361284
1631290354148,66246,332098,361288
1631290354158,66222,332091,361259
1631290354168,66204,332049,361232
1631290354178,66192,332017,361242
1631290354188,66163,331995,361236
1631290354198,66147,331973,361234
1631290354208,66124,332003,361213
1631290354218,66097,331917,361207
1631290354228,66073,331930,361178
1631290354238,66047,331892,361152
1631290354248,66044,331873,361139
1631290354258,66029,331905,361097
1631290354268,66001,331862,361121
1631290354278,65974,331843,361068
1631290354288,65958,331839,361044
1631290354298,65943,331850,361062
1631290354308,65926,331771,361040
1631290354318,65926,331793,361050
1631290354328,65912,331792,360996
1631290354338,65889,331822,361006
1631290354348,65888,331781,361031
1631290354358,65878,331792,360987
1631290354368,65876,331771,361017
1631290354378,65851,331790,360963
1631290354388,65843,331746,360948
1631290354398,65852,331748,360954
1631290354408,65835,331754,360979
1631290354418,65826,331749,360945
1631290354428,65804,331753,360930
1631290354438,65799,331696,360937
1631290354448,65810,331737,360917
1631290354458,65816,331675,360898
1631290354468,65806,331670,360934
1631290354478,65817,331704,360905
1631290354488,65825,331698,360898
1631290354498,65819,331726,360895
1631290354508,65818,331729,360889
1631290354518,65817,331757,360907
1631290354528,65812,331768,360872
1631290354538,65819,331751,360911
1631290354548,65826,331783,360893
1631290354558,65832,331800,360892
1631290354568,65834,331750,360902
1631290354578,65846,331742,360897
1631290354588,65867,331775,360912
1631290354598,65869,331774,360894
1631290354608,65864,331745,360860
1631290354618,65873,331798,360934
1631290354628,65864,331783,360913
1631290354638,65878,331799,360868
1631290354648,65907,331841,360848
1631290354658,65912,331796,360877
1631290354668,65920,331842,360907
1631290354678,65926,331879,360880
1631290354688,65936,331889,360885
1631290354698,65939,331850,360909
1631290354708,65930,331880,360930
1631290354718,65965,331867,360879
1631290354728,65964,331901,360920
1631290354738,65972,331907,360885
1631290354748,65982,331868,360931
1631290354758,66002,331911,360975
1631290354768,66008,331915,360917
1631290354778,66017,331960,360939
1631290354788,66042,331938,360959
1631290354798,66058,331957,360931
1631290354808,66068,331966,360940
1631290354818,66096,331999,360924
1631290354828,66094,331984,360995
1631290354838,66115,331983,360968
1631290354848,66133,332010,361008
1631290354858,66145,331991,360967
1631290354868,66130,331957,360997
1631290354878,66126,331915,360921
1631290354888,66111,331911,360941
1631290354898,66118,331842,360914
1631290354908,66087,331814,360946
1631290354918,66063,331814,360938
1631290354928,66047,331789,360909
1631290354938,66021,331703,360951
1631290354948,65994,331728,360928
1631290354958,65963,331697,360903
1631290354968,65943,331714,360930
1631290354978,65924,331707,360896
1631290354988,65903,331671,360843
1631290354998,65880,331641,360859
1631290355008,65863,331646,360870
1631290355018,65832,331614,360882
1631290355028,65813,331611,360812
1631290355038,65799,331585,360830
1631290355048,65770,331535,360811
1631290355058,65757,331499,360814
1631290355068,65745,331487,360767
1631290355078,65716,331491,360778
1631290355088,65700,331507,360748
1631290355098,65681,331468,360763
1631290355108,65666,331504,360722
1631290355118,65657,331434,360719
1631290355128,65646,331496,360705
1631290355138,65633,331404,360730
1631290355148,65647,331419,360709
1631290355158,65630,331411,360686
1631290355168,65618,331379,360683
1631290355178,65618,331399,360704
1631290355188,65607,331426,360653
1631290355198,65590,331364,360695
1631290355208,65582,331354,360675
1631290355218,65574,331423,360694
1631290355228,65583,331357,360628
1631290355238,65556,331348,360670
1631290355248,65568,331341,360642
1631290355258,65545,331315,360664
1631290355268,65541,331326,360669
1631290355278,65551,331326,360652
1631290355288,65566,331341,360624
1631290355298,65562,331376,360595
1631290355308,65552,331331,360636
1631290355318,65554,331373,360606
1631290355328,65567,331345,360623
1631290355338,65553,331350,360563
1631290355348,65569,331360,360619
1631290355358,65570,331357,360593
1631290355368,65582,331366,360613
1631290355378,65593,331334,360634
1631290355388,65579,331382,360636
1631290355398,65593,331357,360614
1631290355408,65608,331390,360576
1631290355418,65597,331368,360577
1631290355428,65605,331338,360613
1631290355438,65610,331352,360602
1631290355448,65627,331364,360588
1631290355458,65638,331405,360554
1631290355468,65633,331413,360591
1631290355478,65646,331397,360558
1631290355488,65646,331413,360558
1631290355498,65662,331457,360582
1631290355508,65663,331447,360594
1631290355518,65683,331466,360641
1631290355528,65687,331480,360565
1631290355538,65696,331473,360600
1631290355548,65723,331521,360643
1631290355558,65727,331476,360634
1631290355568,65739,331496,360648
1631290355578,65742,331499,360650
1631290355588,65763,331561,360656
1631290355598,65776,331551,360620
1631290355608,65785,331565,360612
1631290355618,65812,331581,360633
1631290355628,65814,331586,360640
1631290355638,65831,331561,360662
1631290355648,65844,331594,360614
1631290355658,65859,331645,360677
1631290355668,65872,331644,360692
1631290355678,65895,331628,360688
1631290355688,65908,331703,360682
1631290355698,65908,331680,360678
1631290355708,65942,331665,360731
1631290355718,65949,331691,360694
1631290355728,65965,331685,360695
1631290355738,65967,331685,360687
1631290355748,65974,331667,360660
1631290355758,65969,331561,360729
1631290355768,65958,331625,360687
1631290355778,65925,331553,360658
1631290355788,65912,331555,360677
1631290355798,65890,331501,360659
1631290355808,65869,331509,360650
1631290355818,65837,331497,360673
1631290355828,65817,331477,360650
1631290355838,65796,331436,360662
1631290355848,65784,331415,360678
1631290355858,65774,331376,360642
1631290355868,65749,331363,360634
1631290355878,65732,331330,360620
1631290355888,65718,331356,360618
1631290355898,65708,331309,360599
1631290355908,65679,331346,360583
1631290355918,65667,331217,360613
1631290355928,65655,331241,360562
1631290355938,65634,331247,360529
1631290355948,65609,331257,360548
1631290355958,65591,331234,360528
1631290355968,65577,331254,360549
1631290355978,65566,331260,360546
1631290355988,65553,331216,360521
1631290355998,65546,331179,360498
1631290356008,65538,331210,360563
1631290356018,65534,331222,360519
1631290356028,65554,331205,360491
1631290356038,65538,331186,360524
1631290356048,65525,331214,360522
1631290356058,65519,331182,360500
1631290356068,65523,331174,360499
1631290356078,65518,331195,360512
1631290356088,65513,331126,360506
1631290356098,65509,331159,360499
1631290356108,65508,331178,360473
1631290356118,65513,331181,360505
1631290356128,65505,331192,360523
1631290356138,65489,331158,360487
1631290356148,65487,331153,360480
1631290356158,65501,331193,360502
1631290356168,65499,331136,360520
1631290356178,65498,331217,360485
1631290356188,65496,331178,360506
1631290356198,65513,331155,360494
1631290356208,65518,331217,360491
1631290356218,65514,331174,360498
1631290356228,65520,331198,360519
1631290356238,65516,331210,360469
1631290356248,65526,331232,360540
1631290356258,65551,331192,360480
1631290356268,65544,331207,360488
1631290356278,65558,331250,360506
1631290356288,65568,331253,360504
1631290356298,65575,331280,360485
1631290356308,65575,331250,360522
1631290356318,65590,331278,360533
1631290356328,65591,331286,360511
1631290356338,65597,331307,360535
1631290356348,65613,331311,360552
1631290356358,65627,331283,360564
1631290356368,65636,331330,360540
1631290356378,65636,331314,360533
1631290356388,65639,331304,360586
1631290356398,65662,331353,360554
1631290356408,65675,331319,360579
1631290356418,65708,331396,360536
1631290356428,65710,331366,360592
1631290356438,65718,331430,360604
1631290356448,65722,331423,360615
1631290356458,65748,331441,360605
1631290356468,65760,331382,360611
1631290356478,65778,331431,360634
1631290356488,65789,331466,360628
1631290356498,65806,331482,360674
1631290356508,65798,331533,360633
1631290356518,65836,331509,360674
1631290356528,65832,331533,360653
1631290356538,65857,331501,360652
1631290356548,65869,331565,360721
1631290356558,65886,331587,360668
1631290356568,65903,331616,360706
1631290356578,65935,331585,360690
1631290356588,65924,331589,360707
1631290356598,65955,331610,360727
1631290356608,65981,331642,360764
1631290356618,66004,331638,360729
1631290356628,66006,331667,360765
1631290356638,66014,331632,360748
1631290356648,66027,331614,360775
1631290356658,66027,331611,360741
1631290356668,66040,331549,360758
1631290356678,66020,331553,360769
1631290356688,65986,331542,360732
1631290356698,65976,331478,360704
1631290356708,65941,331472,360749
1631290356718,65932,331453,360730
1631290356728,65907,331465,360751
1631290356738,65889,331423,360708
1631290356748,65879,331402,360695
1631290356758,65866,331384,360715
1631290356768,65847,331376,360731
1631290356778,65838,331364,360702
1631290356788,65811,331380,360702
1631290356798,65806,331383,360696
1631290356808,65782,331367,360668
1631290356818,65774,331327,360688
1631290356828,65764,331329,360645
1631290356838,65754,331329,360621
1631290356848,65749,331279,360657
1631290356858,65723,331342,360633
1631290356868,65724,331310,360660
1631290356878,65706,331325,360646
1631290356888,65694,331326,360630
1631290356898,65703,331301,360627
1631290356908,65698,331258,360649
1631290356918,65693,331279,360620
1631290356928,65704,331316,360621
1631290356938,65682,331248,360599
1631290356948,65670,331250,360636
1631290356958,65679,331280,360626
1631290356968,65673,331272,360618
1631290356978,65655,331240,360631
1631290356988,65657,331222,360609
1631290356998,65660,331252,360586
1631290357008,65662,331247,360590
1631290357018,65662,331224,360650
1631290357028,65638,331255,360620
1631290357038,65654,331271,360595
1631290357048,65647,331250,360604
1631290357058,65642,331308,360615
1631290357068,65658,331292,360590
1631290357078,65660,331271,360621
1631290357088,65670,331280,360592
1631290357098,65676,331310,360596
1631290357108,65673,331329,360623
1631290357118,65681,331316,360598
1631290357128,65673,331348,360603
1631290357138,65678,331315,360646
1631290357148,65683,331308,360577
1631290357158,65697,331343,360593
1631290357168,65710,331364,360610
1631290357178,65703,331408,360572
1631290357188,65707,331396,360615
1631290357198,65727,331402,360627
1631290357208,65726,331385,360606
1631290357218,65740,331412,360612
1631290357228,65751,331409,360610
1631290357238,65741,331400,360592
1631290357248,65769,331412,360625
1631290357258,65765,331404,360626
1631290357268,65786,331447,360604
1631290357278,65789,331442,360644
1631290357288,65810,331441,360620
1631290357298,65826,331485,360625
1631290357308,65832,331478,360659
1631290357318,65861,331518,360647
1631290357328,65855,331512,360658
1631290357338,65883,331561,360674
1631290357348,65878,331585,360698
1631290357358,65895,331535,360678
1631290357368,65911,331577,360722
1631290357378,65923,331602,360668
1631290357388,65939,331597,360698
1631290357398,65947,331580,360721
1631290357408,65971,331665,360751
1631290357418,65999,331666,360751
1631290357428,66003,331665,360711
1631290357438,66016,331731,360738
1631290357448,66030,331706,360737
1631290357458,66050,331712,360744
1631290357468,66065,331745,360761
1631290357478,66089,331758,360831
1631290357488,66103,331752,360788
1631290357498,66127,331739,360786
1631290357508,66154,331832,360853
1631290357518,66174,331802,360828
1631290357528,66174,331762,360819
1631290357538,66187,331778,360876
1631290357548,66194,331805,360892
1631290357558,66206,331729,360878
1631290357568,66200,331687,360914
1631290357578,66180,331693,360874
1631290357588,66161,331659,360874
1631290357598,66151,331649,360793
1631290357608,66120,331604,360827
1631290357618,66093,331588,360801
1631290357628,66082,331584,360813
1631290357638,66075,331626,360829
1631290357648,66065,331621,360809
1631290357658,66058,331647,360807
1631290357668,66051,331587,360820
1631290357678,66038,331578,360807
1631290357688,66033,331581,360792
1631290357698,66027,331601,360783
1631290357708,66021,331571,360816
1631290357718,65993,331581,360799
1631290357728,66002,331559,360796
1631290357738,65993,331589,360811
1631290357748,65991,331554,360807
1631290357758,65985,331561,360799
1631290357768,65980,331551,360811
1631290357778,65984,331617,360770
1631290357788,65978,331614,360813
1631290357798,65996,331597,360804
1631290357808,65970,331595,360755
1631290357818,65989,331571,360830
1631290357828,65996,331607,360785
1631290357838,65978,331575,360779
1631290357848,65975,331574,360777
1631290357858,65978,331566,360785
1631290357868,65957,331593,360774
1631290357878,65965,331536,360776
1631290357888,65969,331545,360777
1631290357898,65953,331568,360762
1631290357908,65958,331550,360761
1631290357918,65960,331546,360742
1631290357928,65970,331579,360772
1631290357938,65956,331563,360749
1631290357948,65968,331578,360774
1631290357958,65963,331620,360782
1631290357968,65987,331594,360803
1631290357978,65971,331596,360797
1631290357988,65985,331626,360789
1631290357998,65989,331641,360808
1631290358008,65993,331627,360807
1631290358018,66013,331637,360801
1631290358028,66019,331594,360788
1631290358038,66017,331671,360810
1631290358048,66047,331656,360863
1631290358058,66048,331744,360846
1631290358068,66072,331713,360817
1631290358078,66057,331704,360822
1631290358088,66073,331736,360831
1631290358098,66084,331714,360851
1631290358108,66094,331736,360862
1631290358118,66106,331768,360842
1631290358128,66123,331741,360871
1631290358138,66140,331764,360895
1631290358148,66144,331723,360853
1631290358158,66143,331793,360863
1631290358168,66149,331761,360859
1631290358178,66158,331813,360868
1631290358188,66180,331824,360921
1631290358198,66193,331858,360884
1631290358208,66220,331833,360850
1631290358218,66211,331830,360896
1631290358228,66228,331824,360911
1631290358238,66239,331878,360911
1631290358248,66250,331847,360900
1631290358258,66254,331869,360891
1631290358268,66275,331877,360920
1631290358278,66288,331977,360956
1631290358288,66294,331952,360945
1631290358298,66323,331963,360950
1631290358308,66342,332027,360970
1631290358318,66347,331997,360991
1631290358328,66372,331985,360980
1631290358338,66370,332021,361006
1631290358348,66397,332028,360955
1631290358358,66413,332071,361008
1631290358368,66429,332040,361008
1631290358378,66449,332100,360985
1631290358388,66466,332010,361037
1631290358398,66455,332011,361015
1631290358408,66462,331992,361066
1631290358418,66462,331971,361048
1631290358428,66443,331964,360998
1631290358438,66430,331912,361062
1631290358448,66425,331963,361039
1631290358458,66386,331848,361010
1631290358468,66391,331899,361052
1631290358478,66373,331903,361008
1631290358488,66340,331886,361021
1631290358498,66330,331896,360997
1631290358508,66324,331864,361020
1631290358518,66319,331916,361009
1631290358528,66299,331847,361018
1631290358538,66297,331872,361028
1631290358548,66284,331830,360968
1631290358558,66283,331831,360971
1631290358568,66257,331859,360968
1631290358578,66243,331828,360975
1631290358588,66242,331845,360981
1631290358598,66249,331822,360949
1631290358608,66243,331824,360962
1631290358618,66239,331872,360952
1631290358628,66235,331866,360953
1631290358638,66221,331845,360985
1631290358648,66238,331836,360946
1631290358658,66213,331828,360949
1631290358668,66210,331841,360969
1631290358678,66224,331834,360999
1631290358688,66192,331828,360967
1631290358698,66202,331837,360951
1631290358708,66194,331881,360952
1631290358718,66198,331858,360982
1631290358728,66200,331860,360936
1631290358738,66205,331836,360961
1631290358748,66184,331835,360957
1631290358758,66187,331844,360952
1631290358768,66187,331826,360942
1631290358778,66214,331808,360971
1631290358788,66191,331843,360939
1631290358798,66203,331878,360906
1631290358808,66216,331870,360956
1631290358818,66201,331888,360947
1631290358828,66200,331903,360951
1631290358838,66214,331918,360976
1631290358848,66214,331859,360983
1631290358858,66226,331913,360940
1631290358868,66227,331884,360913
1631290358878,66235,331924,360937
1631290358888,66227,331923,360990
1631290358898,66245,331944,360958
1631290358908,66246,331976,360952
1631290358918,66239,331926,360980
1631290358928,66267,331977,360987
1631290358938,66282,331962,361005
1631290358948,66278,331969,361000
1631290358958,66306,332022,360961
1631290358968,66297,332003,360963
1631290358978,66305,332014,361000
1631290358988,66310,332018,361004
1631290358998,66324,332022,360986
1631290359008,66332,332017,360981
1631290359018,66339,332057,361002
1631290359028,66372,332068,361007
1631290359038,66380,332042,360989
1631290359048,66377,332098,360986
1631290359058,66385,332082,361009
1631290359068,66398,332112,361015
1631290359078,66418,332135,360984
1631290359088,66429,332146,361034
1631290359098,66440,332144,361021
1631290359108,66442,332116,361009
1631290359118,66454,332175,361039
1631290359128,66475,332181,361046
1631290359138,66481,332189,361049
1631290359148,66479,332196,361031
1631290359158,66500,332213,361024
1631290359168,66516,332229,361075
1631290359178,66529,332246,361052
1631290359188,66534,332239,361053
1631290359198,66561,332303,361036
1631290359208,66568,332313,361083
1631290359218,66577,332292,361091
1631290359228,66584,332323,361063
1631290359238,66603,332302,361101
1631290359248,66602,332248,361086
1631290359258,66600,332224,361067
1631290359268,66589,332198,361081
1631290359278,66567,332158,361062
1631290359288,66545,332096,361030
1631290359298,66512,332068,361015
1631290359308,66495,332039,361067
1631290359318,66463,331982,361033
1631290359328,66449,331996,360971
1631290359338,66421,331982,360999
1631290359348,66388,332021,360976
1631290359358,66377,331974,360975
1631290359368,66334,331939,360923
1631290359378,66311,331931,360932
1631290359388,66295,331935,360933
1631290359398,66276,331915,360949
1631290359408,66255,331939,360923
1631290359418,66244,331879,360902
1631290359428,66237,331884,360900
1631290359438,66208,331903,360898
1631290359448,66167,331817,360855
1631290359458,66170,331809,360861
1631290359468,66125,331840,360872
1631290359478,66111,331795,360824
1631290359488,66098,331777,360804
1631290359498,66085,331757,360811
1631290359508,66071,331766,360824
1631290359518,66057,331742,360821
1631290359528,66055,331756,360794
1631290359538,66041,331710,360830
1631290359548,66032,331720,360823
1631290359558,66012,331759,360783
1631290359568,66012,331760,360783
1631290359578,65994,331721,360769
1631290359588,65982,331688,360801
1631290359598,65991,331702,360714
1631290359608,65959,331677,360768
1631290359618,65959,331715,360727
1631290359628,65934,331656,360711
1631290359638,65921,331689,360695
1631290359648,65934,331685,360716
1631290359658,65918,331684,360728
1631290359668,65917,331651,360736
1631290359678,65924,331681,360718
1631290359688,65925,331676,360675
1631290359698,65911,331658,360666
1631290359708,65902,331683,360650
1631290359718,65895,331689,360690
1631290359728,65902,331696,360695
1631290359738,65902,331740,360666
1631290359748,65889,331639,360659
1631290359758,65907,331683,360654
1631290359768,65909,331705,360661
1631290359778,65898,331667,360644
1631290359788,65895,331674,360657
1631290359798,65901,331718,360691
1631290359808,65913,331690,360642
1631290359818,65925,331719,360622
1631290359828,65919,331731,360659
1631290359838,65927,331722,360633
1631290359848,65935,331715,360645
1631290359858,65950,331740,360691
1631290359868,65952,331760,360658
1631290359878,65959,331789,360636
1631290359888,65957,331767,360651
1631290359898,65961,331715,360658
1631290359908,65965,331765,360646
1631290359918,65986,331747,360665
1631290359928,65988,331805,360673
1631290359938,65983,331810,360658
1631290359948,65984,331838,360626
1631290359958,65993,331846,360676
1631290359968,66011,331832,360641
1631290359978,66023,331816,360635
1631290359988,66036,331884,360684
1631290359998,66042,331886,360649
1631290360008,66051,331886,360659
1631290360018,66059,331893,360661
1631290360028,66072,331875,360654
1631290360038,66079,331880,360672
1631290360048,66091,331888,360636
1631290360058,66097,331948,360661
1631290360068,66134,331883,360719
1631290360078,66150,331939,360678
1631290360088,66144,331946,360696
1631290360098,66171,331929,360674
1631290360108,66191,331921,360677
1631290360118,66190,331885,360669
1631290360128,66173,331872,360687
1631290360138,66151,331828,360671
1631290360148,66136,331777,360667
1631290360158,66106,331724,360658
1631290360168,66070,331697,360631
1631290360178,66046,331678,360619
1631290360188,66007,331665,360631
1631290360198,65968,331625,360595
1631290360208,65955,331600,360603
1631290360218,65925,331621,360553
1631290360228,65929,331572,360588
1631290360238,65902,331588,360561
1631290360248,65866,331530,360565
1631290360258,65847,331594,360519
1631290360268,65834,331522,360513
1631290360278,65791,331493,360496
1631290360288,65780,331457,360469
1631290360298,65752,331506,360446
1631290360308,65744,331457,360490
1631290360318,65720,331406,360467
1631290360328,65698,331431,360446
1631290360338,65675,331436,360443
1631290360348,65666,331372,360389
1631290360358,65637,331411,360423
1631290360368,65631,331393,360409
1631290360378,65619,331395,360409
1631290360388,65625,331379,360429
1631290360398,65603,331377,360384
1631290360408,65600,331323,360352
1631290360418,65587,331364,360392
1631290360428,65576,331340,360360
1631290360438,65566,331323,360387
1631290360448,65548,331339,360309
1631290360458,65541,331307,360363
1631290360468,65540,331325,360373
1631290360478,65542,331325,360339
1631290360488,65536,331307,360371
1631290360498,65521,331303,360329
1631290360508,65521,331316,360341
1631290360518,65507,331292,360322
1631290360528,65506,331315,360312
1631290360538,65505,331316,360343
1631290360548,65523,331289,360314
1631290360558,65508,331284,360327
1631290360568,65518,331336,360310
1631290360578,65505,331256,360310
1631290360588,65524,331317,360314
1631290360598,65524,331321,360307
1631290360608,65518,331282,360301
1631290360618,65510,331304,360299
1631290360628,65519,331335,360327
1631290360638,65527,331287,360319
1631290360648,65535,331335,360339
1631290360658,65531,331349,360301
1631290360668,65550,331360,360323
1631290360678,65544,331332,360285
1631290360688,65557,331348,360331
1631290360698,65560,331348,360273
1631290360708,65567,331341,360295
1631290360718,65578,331338,360316
1631290360728,65574,331394,360325
1631290360738,65601,331331,360286
1631290360748,65621,331374,360323
1631290360758,65603,331422,360323
1631290360768,65609,331412,360307
1631290360778,65629,331413,360347
1631290360788,65642,331426,360357
1631290360798,65646,331386,360305
1631290360808,65662,331405,360298
1631290360818,65654,331471,360338
1631290360828,65673,331462,360329
1631290360838,65692,331455,360297
1631290360848,65705,331505,360343
1631290360858,65706,331518,360383
1631290360868,65721,331510,360372
1631290360878,65730,331503,360380
1631290360888,65740,331547,360383
1631290360898,65763,331551,360387
1631290360908,65770,331556,360408
1631290360918,65795,331604,360370
1631290360928,65804,331594,360371
1631290360938,65810,331609,360415
1631290360948,65829,331619,360395
1631290360958,65842,331658,360393
1631290360968,65858,331659,360379
1631290360978,65872,331622,360422
1631290360988,65874,331649,360403
1631290360998,65863,331613,360397
1631290361008,65861,331536,360424
1631290361018,65863,331544,360382
1631290361028,65840,331436,360382
1631290361038,65809,331471,360360
1631290361048,65765,331444,360379
1631290361058,65779,331440,360401
1631290361068,65742,331416,360350
1631290361078,65700,331367,360333
1631290361088,65687,331344,360369
1631290361098,65677,331327,360354
1631290361108,65648,331316,360357
1631290361118,65630,331280,360319
1631290361128,65607,331280,360295
1631290361138,65592,331324,360316
1631290361148,65574,331290,360294
1631290361158,65545,331269,360255
1631290361168,65536,331281,360304
1631290361178,65502,331248,360286
1631290361188,65479,331213,360232
1631290361198,65478,331215,360251
1631290361208,65469,331217,360216
1631290361218,65456,331252,360258
1631290361228,65449,331155,360272
1631290361238,65445,331159,360234
1631290361248,65422,331207,360195
1631290361258,65410,331175,360202
1631290361268,65399,331138,360183
1631290361278,65400,331152,360227
1631290361288,65388,331176,360182
1631290361298,65378,331179,360204
1631290361308,65371,331164,360180
1631290361318,65366,331141,360173
1631290361328,65351,331108,360191
1631290361338,65351,331122,360192
1631290361348,65353,331150,360168
1631290361358,65318,331145,360149
1631290361368,65345,331104,360129
1631290361378,65337,331098,360133
1631290361388,65330,331111,360166
1631290361398,65330,331139,360126
1631290361408,65318,331100,360135
1631290361418,65316,331093,360139
1631290361428,65316,331127,360115
1631290361438,65312,331108,360135
1631290361448,65329,331133,360125
1631290361458,65329,331161,360133
1631290361468,65335,331131,360139
1631290361478,65332,331118,360135
1631290361488,65335,331124,360107
1631290361498,65328,331136,360103
1631290361508,65346,331100,360134
1631290361518,65356,331135,360134
1631290361528,65353,331182,360127
1631290361538,65356,331117,360150
1631290361548,65368,331189,360116
1631290361558,65374,331174,360132
1631290361568,65380,331186,360096
1631290361578,65377,331139,360129
1631290361588,65393,331232,360104
1631290361598,65405,331230,360147
1631290361608,65410,331212,360129
1631290361618,65436,331245,360161
1631290361628,65438,331213,360147
1631290361638,65441,331219,360164
1631290361648,65442,331235,360152
1631290361658,65454,331306,360138
1631290361668,65468,331268,360160
1631290361678,65474,331248,360191
1631290361688,65493,331270,360181
1631290361698,65504,331327,360160
1631290361708,65510,331352,360170
1631290361718,65530,331379,360163
1631290361728,65540,331315,360193
1631290361738,65560,331319,360216
1631290361748,65558,331390,360164
1631290361758,65588,331358,360191
1631290361768,65605,331371,360211
1631290361778,65596,331421,360222
1631290361788,65612,331399,360188
1631290361798,65635,331452,360219
1631290361808,65645,331462,360222
1631290361818,65666,331432,360275
1631290361828,65682,331484,360224
1631290361838,65688,331526,360267
1631290361848,65715,331463,360236
1631290361858,65721,331522,360292
1631290361868,65750,331485,360284
1631290361878,65763,331452,360307
1631290361888,65762,331499,360305
1631290361898,65757,331475,360293
1631290361908,65738,331451,360253
1631290361918,65727,331433,360263
1631290361928,65710,331356,360238
1631290361938,65681,331335,360235
1631290361948,65646,331346,360278
1631290361958,65637,331279,360270
1631290361968,65603,331300,360271
1631290361978,65585,331283,360258
1631290361988,65568,331253,360233
1631290361998,65580,331233,360237
1631290362008,65530,331214,360216
1631290362018,65514,331201,360214
1631290362028,65523,331222,360172
1631290362038,65508,331216,360179
1631290362048,65480,331170,360169
1631290362058,65476,331172,360224
1631290362068,65447,331181,360148
1631290362078,65441,331170,360146
1631290362088,65425,331161,360163
1631290362098,65427,331181,360187
1631290362108,65412,331178,360168
1631290362118,65406,331174,360123
1631290362128,65397,331133,360160
1631290362138,65386,331167,360131
1631290362148,65379,331153,360113
1631290362158,65375,331096,360111
1631290362168,65374,331100,360108
1631290362178,65375,331129,360128
1631290362188,65351,331114,360141
1631290362198,65357,331045,360136
1631290362208,65345,331122,360128
1631290362218,65347,331133,360115
1631290362228,65335,331145,360117
1631290362238,65331,331103,360072
1631290362248,65339,331079,360097
1631290362258,65328,331154,360119
1631290362268,65338,331110,360087
1631290362278,65328,331100,360093
1631290362288,65332,331120,360088
1631290362298,65326,331103,360069
1631290362308,65342,331116,360109
1631290362318,65335,331095,360114
1631290362328,65354,331113,360104
1631290362338,65358,331155,360077
1631290362348,65350,331154,360081
1631290362358,65363,331170,360148
1631290362368,65379,331149,360131
1631290362378,65368,331152,360102
1631290362388,65376,331139,360102
1631290362398,65376,331203,360114
1631290362408,65394,331168,360089
1631290362418,65386,331188,360116
1631290362428,65414,331218,360121
1631290362438,65405,331175,360120
1631290362448,65399,331187,360130
1631290362458,65416,331221,360097
1631290362468,65438,331207,360154
1631290362478,65440,331263,360082
1631290362488,65445,331280,360132
1631290362498,65471,331270,360116
1631290362508,65476,331324,360174
1631290362518,65489,331283,360106
1631290362528,65487,331223,360109
1631290362538,65496,331306,360170
1631290362548,65523,331332,360137
1631290362558,65512,331329,360150
1631290362568,65533,331339,360182
1631290362578,65547,331317,360183
1631290362588,65564,331346,360161
1631290362598,65568,331285,360169
1631290362608,65580,331350,360204
1631290362618,65581,331379,360235
1631290362628,65599,331402,360199
1631290362638,65604,331426,360225
1631290362648,65625,331376,360215
1631290362658,65633,331473,360188
1631290362668,65668,331450,360207
1631290362678,65677,331488,360228
1631290362688,65676,331509,360232
1631290362698,65691,331540,360235
1631290362708,65724,331518,360240
1631290362718,65730,331499,360280
1631290362728,65752,331521,360275
1631290362738,65763,331546,360288
1631290362748,65776,331485,360277
1631290362758,65764,331440,360268
1631290362768,65786,331467,360265
1631290362778,65761,331441,360288
1631290362788,65739,331396,360252
1631290362798,65723,331391,360238
1631290362808,65701,331335,360228
1631290362818,65682,331334,360245
1631290362828,65659,331331,360235
1631290362838,65648,331312,360205
1631290362848,65614,331339,360205
1631290362858,65607,331237,360203
1631290362868,65593,331280,360190
1631290362878,65574,331225,360227
1631290362888,65575,331249,360191
1631290362898,65561,331232,360164
1631290362908,65545,331271,360196
1631290362918,65539,331191,360168
1631290362928,65525,331188,360191
1631290362938,65506,331215,360148
1631290362948,65507,331184,360124
1631290362958,65497,331191,360175
1631290362968,65494,331190,360119
1631290362978,65494,331207,360149
1631290362988,65469,331210,360169
1631290362998,65495,331180,360132
1631290363008,65486,331219,360144
1631290363018,65486,331184,360168
1631290363028,65472,331200,360136
1631290363038,65460,331171,360139
1631290363048,65448,331176,360142
1631290363058,65463,331201,360144
1631290363068,65466,331221,360144
1631290363078,65449,331199,360145
1631290363088,65445,331208,360170
1631290363098,65431,331168,360139
1631290363108,65431,331166,360099
1631290363118,65420,331146,360135
1631290363128,65422,331178,360153
1631290363138,65422,331227,360115
1631290363148,65424,331182,360146
1631290363158,65432,331211,360136
1631290363168,65443,331218,360145
1631290363178,65449,331209,360106
1631290363188,65432,331176,360086
1631290363198,65429,331219,360154
1631290363208,65438,331218,360105
1631290363218,65444,331218,360133
1631290363228,65458,331232,360140
1631290363238,65463,331296,360129
1631290363248,65475,331230,360128
1631290363258,65478,331251,360140
1631290363268,65469,331231,360124
1631290363278,65477,331245,360137
1631290363288,65496,331245,360176
1631290363298,65503,331302,360112
1631290363308,65521,331286,360128
1631290363318,65512,331242,360105
1631290363328,65505,331329,360166
1631290363338,65543,331335,360135
1631290363348,65538,331332,360141
1631290363358,65543,331320,360189
1631290363368,65557,331335,360160
1631290363378,65570,331347,360164
1631290363388,65586,331349,360207
1631290363398,65597,331380,360159
1631290363408,65608,331389,360158
1631290363418,65613,331418,360206
1631290363428,65622,331398,360176
1631290363438,65635,331360,360171
1631290363448,65649,331391,360215
1631290363458,65654,331410,360232
1631290363468,65664,331475,360212
1631290363478,65692,331422,360226
1631290363488,65696,331469,360212
1631290363498,65721,331512,360227
1631290363508,65724,331532,360228
1631290363518,65724,331488,360218
1631290363528,65737,331528,360253
1631290363538,65775,331465,360278
1631290363548,65780,331511,360225
1631290363558,65793,331562,360254
1631290363568,65806,331556,360280
1631290363578,65815,331569,360284
1631290363588,65835,331601,360302
1631290363598,65842,331614,360282
1631290363608,65858,331595,360279
1631290363618,65866,331556,360294
1631290363628,65865,331537,360280
1631290363638,65866,331505,360286
1631290363648,65839,331473,360285
1631290363658,65820,331418,360304
1631290363668,65784,331437,360220
1631290363678,65762,331382,360250
1631290363688,65733,331388,360270
1631290363698,65717,331328,360245
1631290363708,65696,331342,360217
1631290363718,65668,331327,360215
1631290363728,65660,331306,360211
1631290363738,65640,331345,360207
1631290363748,65620,331260,360198
1631290363758,65603,331280,360199
1631290363768,65575,331251,360221
1631290363778,65558,331278,360205
1631290363788,65545,331202,360166
1631290363798,65531,331245,360173
1631290363808,65503,331179,360129
1631290363818,65501,331207,360139
1631290363828,65479,331201,360159
1631290363838,65477,331173,360128
1631290363848,65452,331206,360120
1631290363858,65438,331179,360116
1631290363868,65446,331182,360092
1631290363878,65435,331155,360142
1631290363888,65426,331187,360121
1631290363898,65422,331152,360125
1631290363908,65415,331156,360089
1631290363918,65416,331136,360091
1631290363928,65396,331167,360107
1631290363938,65393,331099,360082
1631290363948,65398,331125,360089
1631290363958,65380,331146,360111
1631290363968,65377,331112,360059
1631290363978,65378,331110,360067
1631290363988,65374,331146,360081
1631290363998,65353,331113,360078
1631290364008,65345,331105,360094
1631290364018,65368,331133,360066
1631290364028,65352,331101,360102
1631290364038,65353,331116,360038
1631290364048,65358,331110,360076
1631290364058,65362,331110,360048
1631290364068,65351,331131,360071
1631290364078,65359,331115,360027
1631290364088,65368,331138,360063
1631290364098,65363,331115,360069
1631290364108,65356,331164,360095
1631290364118,65363,331137,360056
1631290364128,65379,331180,360093
1631290364138,65361,331097,360076
1631290364148,65391,331120,360057
1631290364158,65392,331213,360080
1631290364168,65393,331171,360054
1631290364178,65391,331161,360047
1631290364188,65406,331198,360100
1631290364198,65421,331227,360086
1631290364208,65420,331233,360105
1631290364218,65416,331223,360122
1631290364228,65435,331150,360113
1631290364238,65440,331217,360077
1631290364248,65455,331216,360093
1631290364258,65457,331220,360084
1631290364268,65473,331255,360116
1631290364278,65484,331245,360089
1631290364288,65512,331268,360092
1631290364298,65515,331289,360123
1631290364308,65526,331317,360140
1631290364318,65516,331264,360111
1631290364328,65541,331297,360064
1631290364338,65550,331348,360124
1631290364348,65563,331367,360108
1631290364358,65558,331345,360152
1631290364368,65592,331333,360148
1631290364378,65602,331315,360156
1631290364388,65612,331387,360190
1631290364398,65614,331421,360192
1631290364408,65627,331430,360202
1631290364418,65644,331429,360180
1631290364428,65660,331477,360197
1631290364438,65682,331430,360196
1631290364448,65694,331478,360231
1631290364458,65704,331463,360231
1631290364468,65716,331403,360246
1631290364478,65735,331458,360203
1631290364488,65735,331431,360224
1631290364498,65730,331425,360225
1631290364508,65731,331379,360219
1631290364518,65703,331407,360235
1631290364528,65696,331337,360208
1631290364538,65672,331282,360180
1631290364548,65636,331304,360191
1631290364558,65610,331253,360190
1631290364568,65588,331250,360179
1631290364578,65565,331216,360158
1631290364588,65537,331206,360157
1631290364598,65512,331178,360185
1631290364608,65500,331170,360155
1631290364618,65472,331129,360154
1631290364628,65457,331163,360151
1631290364638,65436,331135,360079
1631290364648,65413,331104,360120
1631290364658,65391,331098,360100
1631290364668,65393,331102,360077
1631290364678,65367,331023,360129
1631290364688,65359,331076,360099
1631290364698,65324,331092,360104
1631290364708,65311,331030,360050
1631290364718,65302,331037,360087
1631290364728,65294,331036,360073
1631290364738,65265,330998,360067
1631290364748,65255,331025,360057
1631290364758,65253,330977,360062
1631290364768,65260,331024,360053
1631290364778,65232,330990,360066
1631290364788,65230,330984,360057
1631290364798,65221,331002,360065
1631290364808,65203,330957,360014
1631290364818,65199,330968,360075
1631290364828,65207,330972,360044
1631290364838,65195,331011,360041
1631290364848,65172,330961,360039
1631290364858,65190,331000,360045
1631290364868,65188,330912,360025
1631290364878,65171,330933,360023
1631290364888,65163,330924,360013
1631290364898,65168,330975,360031
1631290364908,65163,330931,360035
1631290364918,65166,330965,359993
1631290364928,65163,330917,360049
1631290364938,65168,330960,360004
1631290364948,65174,330967,360019
1631290364958,65180,331003,360019
1631290364968,65187,331006,360039
1631290364978,65200,330980,360011
1631290364988,65189,331012,360029
1631290364998,65186,331022,360012
1631290365008,65198,331030,360085
1631290365018,65206,330989,360032
1631290365028,65217,331008,360026
1631290365038,65216,330968,360023
1631290365048,65228,331061,360053
1631290365058,65242,331019,360003
1631290365068,65240,330999,360066
1631290365078,65254,331081,360071
1631290365088,65255,331049,360062
1631290365098,65269,331028,360059
1631290365108,65284,331057,359984
1631290365118,65287,331072,360041
1631290365128,65291,331071,360053
1631290365138,65304,331063,360054
1631290365148,65310,331080,360039
1631290365158,65314,331051,360047
1631290365168,65333,331129,360018
1631290365178,65335,331111,360064
1631290365188,65333,331150,360058
1631290365198,65346,331104,360094
1631290365208,65368,331194,359996
1631290365218,65377,331141,360065
1631290365228,65405,331167,360088
1631290365238,65413,331197,360069
1631290365248,65426,331187,360083
1631290365258,65435,331171,360123
1631290365268,65458,331221,360093
1631290365278,65456,331268,360077
1631290365288,65465,331272,360085
1631290365298,65485,331302,360086
1631290365308,65498,331285,360056
1631290365318,65508,331258,360131
1631290365328,65534,331332,360129
1631290365338,65548,331314,360146
1631290365348,65558,331304,360162
1631290365358,65580,331295,360158
1631290365368,65571,331268,360152
1631290365378,65564,331246,360154
1631290365388,65559,331272,360162
1631290365398,65549,331224,360164
1631290365408,65526,331152,360129
1631290365418,65510,331124,360078
1631290365428,65476,331108,360106
1631290365438,65461,331083,360126
1631290365448,65424,331073,360077
1631290365458,65389,331034,360055
1631290365468,65371,331013,360033
1631290365478,65369,331020,360038
1631290365488,65327,331003,360052
1631290365498,65321,330987,360037
1631290365508,65294,331019,360051
1631290365518,65282,331003,360016
1631290365528,65275,330981,360035
1631290365538,65262,330955,359999
1631290365548,65227,330933,359991
1631290365558,65212,330930,359992
1631290365568,65182,330875,359983
1631290365578,65187,330884,359987
1631290365588,65161,330855,359979
1631290365598,65158,330914,359968
1631290365608,65154,330949,359981
1631290365618,65143,330884,359972
1631290365628,65130,330914,359964
1631290365638,65125,330867,359984
1631290365648,65109,330861,359993
1631290365658,65111,330895,359945
1631290365668,65104,330818,359980
1631290365678,65093,330865,359963
1631290365688,65082,330836,359942
1631290365698,65076,330824,359947
1631290365708,65058,330874,359959
1631290365718,65056,330842,359936
1631290365728,65047,330819,359977
1631290365738,65021,330812,359907
1631290365748,65044,330841,359908
1631290365758,65043,330853,359890
1631290365768,65035,330878,359916
1631290365778,65028,330854,359915
1631290365788,65024,330849,359937
1631290365798,65041,330835,359942
1631290365808,65034,330846,359921
1631290365818,65032,330847,359933
1631290365828,65036,330805,359931
1631290365838,65034,330868,359985
1631290365848,65045,330839,359946
1631290365858,65045,330877,359918
1631290365868,65045,330900,359940
1631290365878,65041,330887,359924
1631290365888,65071,330874,359972
1631290365898,65072,330904,359919
1631290365908,65072,330910,359955
1631290365918,65080,330888,359967
1631290365928,65082,330880,359982
1631290365938,65084,330924,359959
1631290365948,65095,330899,359954
1631290365958,65099,330931,359925
1631290365968,65102,330977,359949
1631290365978,65119,330977,359966
1631290365988,65114,330958,359947
1631290365998,65124,330978,359932
1631290366008,65135,330939,360004
1631290366018,65147,330930,359980
1631290366028,65152,330953,360001
1631290366038,65163,330993,359978
1631290366048,65178,331057,359969
1631290366058,65180,331004,359982
1631290366068,65202,331012,359950
1631290366078,65205,331042,360011
1631290366088,65231,331105,359966
1631290366098,65227,331057,360014
1631290366108,65243,331086,359995
1631290366118,65263,331108,360018
1631290366128,65277,331094,360019
1631290366138,65282,331104,360046
1631290366148,65307,331129,360031
1631290366158,65321,331121,360016
1631290366168,65331,331171,360016
1631290366178,65337,331172,360029
1631290366188,65347,331164,360056
1631290366198,65359,331165,360049
1631290366208,65379,331230,360019
1631290366218,65378,331205,360041
1631290366228,65415,331207,360067
1631290366238,65415,331185,360071
1631290366248,65394,331139,360076
1631290366258,65393,331107,360074
1631290366268,65371,331061,360011
1631290366278,65350,331050,360046
1631290366288,65319,331038,360053
1631290366298,65310,331009,360030
1631290366308,65287,331002,359992
1631290366318,65269,331020,359981
1631290366328,65240,330982,360014
1631290366338,65232,331025,360009
1631290366348,65206,330938,360025
1631290366358,65192,330966,359961
1631290366368,65180,330927,359987
1631290366378,65181,330943,359968
1631290366388,65155,330912,359966
1631290366398,65145,330921,359944
1631290366408,65124,330865,359949
1631290366418,65126,330910,359916
1631290366428,65099,330891,359963
1631290366438,65088,330875,359931
1631290366448,65085,330914,359937
1631290366458,65095,330899,359943
1631290366468,65082,330913,359941
1631290366478,65079,330839,359919
1631290366488,65085,330841,359933
1631290366498,65066,330879,359916
1631290366508,65054,330879,359911
1631290366518,65058,330823,359938
1631290366528,65047,330820,359921
1631290366538,65045,330833,359928
1631290366548,65046,330844,359873
1631290366558,65048,330862,359917
1631290366568,65044,330845,359912
1631290366578,65048,330801,359910
1631290366588,65041,330811,359902
1631290366598,65021,330794,359914
1631290366608,65024,330844,359923
1631290366618,65033,330826,359947
1631290366628,65040,330837,359923
1631290366638,65039,330836,359947
1631290366648,65038,330868,359931
1631290366658,65040,330825,359919
1631290366668,65048,330848,359901
1631290366678,65055,330824,359915
1631290366688,65048,330828,359930
1631290366698,65055,330901,359928
1631290366708,65063,330851,359906
1631290366718,65074,330863,359943
1631290366728,65079,330892,359895
1631290366738,65101,330893,359886
1631290366748,65095,330880,359903
1631290366758,65107,330870,359928
1631290366768,65110,330942,359954
1631290366778,65117,330888,359920
1631290366788,65131,330912,359943
1631290366798,65138,330927,359955
1631290366808,65159,330970,359954
1631290366818,65157,330969,359955
1631290366828,65173,330903,359971
1631290366838,65181,330991,359953
1631290366848,65189,330965,360010
1631290366858,65207,330930,359978
1631290366868,65223,331053,359997
1631290366878,65245,331029,359968
1631290366888,65239,331011,360021
1631290366898,65249,331047,359995
1631290366908,65273,331061,359972
1631290366918,65277,331067,360019
1631290366928,65290,331064,360040
1631290366938,65304,331125,360011
1631290366948,65324,331070,360044
1631290366958,65319,331064,360046
1631290366968,65347,331124,360040
1631290366978,65357,331108,360058
1631290366988,65369,331164,360081
1631290366998,65390,331184,360087
1631290367008,65403,331178,360056
1631290367018,65440,331174,360119
1631290367028,65442,331178,360086
1631290367038,65462,331229,360086
1631290367048,65463,331235,360139
1631290367058,65489,331230,360151
1631290367068,65507,331256,360144
1631290367078,65522,331239,360175
1631290367088,65528,331230,360159
1631290367098,65536,331190,360149
1631290367108,65503,331174,360135
1631290367118,65502,331149,360135
1631290367128,65493,331125,360139
1631290367138,65442,331103,360094
1631290367148,65436,331084,360121
1631290367158,65399,331121,360113
1631290367168,65381,331079,360118
1631290367178,65360,331012,360116
1631290367188,65349,331053,360113
1631290367198,65329,331006,360032
1631290367208,65306,330999,360086
1631290367218,65298,330966,360080
1631290367228,65269,330955,360058
1631290367238,65255,330942,360041
1631290367248,65236,330912,360035
1631290367258,65218,330950,360036
1631290367268,65209,330887,360046
1631290367278,65184,330913,360039
1631290367288,65164,330854,359980
1631290367298,65152,330900,360008
1631290367308,65131,330897,360027
1631290367318,65122,330876,359984
1631290367328,65127,330818,359967
1631290367338,65111,330856,360016
1631290367348,65098,330865,359963
1631290367358,65094,330850,359995
1631290367368,65079,330864,359982
1631290367378,65076,330822,359990
1631290367388,65083,330831,359986
1631290367398,65063,330810,359972
1631290367408,65067,330833,359963
1631290367418,65062,330827,359973
1631290367428,65062,330815,359974
1631290367438,65046,330824,359921
1631290367448,65059,330809,359935
1631290367458,65039,330773,359938
1631290367468,65048,330755,359964
1631290367478,65050,330790,359935
1631290367488,65042,330809,359944
1631290367498,65053,330812,359919
1631290367508,65048,330847,359938
1631290367518,65056,330779,359967
1631290367528,65052,330807,359926
1631290367538,65062,330834,359947
1631290367548,65055,330832,359970
1631290367558,65064,330842,359959
1631290367568,65066,330768,359932
1631290367578,65080,330798,359978
1631290367588,65083,330852,359952
1631290367598,65086,330832,359975
1631290367608,65081,330856,359972
1631290367618,65110,330868,359945
1631290367628,65116,330832,359943
1631290367638,65112,330898,360007
1631290367648,65130,330886,359948
1631290367658,65129,330891,359911
1631290367668,65140,330928,359973
1631290367678,65156,330880,359986
1631290367688,65179,330913,359939
1631290367698,65180,330938,359953
1631290367708,65183,330963,359963
1631290367718,65196,330937,359987
1631290367728,65200,330929,360027
1631290367738,65202,331008,359987
1631290367748,65215,330989,360011
1631290367758,65244,330958,360009
1631290367768,65248,330981,360035
1631290367778,65254,331028,359999
1631290367788,65265,331042,359986
1631290367798,65279,331035,360007
1631290367808,65288,331041,360036
1631290367818,65298,331046,360026
1631290367828,65323,331043,360045
1631290367838,65342,331071,360036
1631290367848,65358,331057,360043
1631290367858,65366,331080,360071
1631290367868,65383,331108,360030
1631290367878,65388,331157,360075
1631290367888,65401,331134,360059
1631290367898,65419,331162,360105
1631290367908,65439,331165,360089
1631290367918,65450,331199,360099
1631290367928,65469,331218,360091
1631290367938,65496,331224,360110
1631290367948,65497,331193,360124
1631290367958,65500,331180,360136
1631290367968,65502,331193,360151
1631290367978,65503,331183,360149
1631290367988,65493,331144,360137
1631290367998,65491,331092,360139
1631290368008,65463,331116,360143
1631290368018,65433,331054,360100
1631290368028,65412,331050,360153
1631290368038,65377,330953,360122
1631290368048,65353,331009,360072
1631290368058,65329,330964,360098
1631290368068,65318,330963,360044
1631290368078,65303,330928,360085
1631290368088,65283,330949,360057
1631290368098,65275,330916,360080
1631290368108,65243,330915,360042
1631290368118,65211,330902,360046
1631290368128,65204,330897,360049
1631290368138,65195,330889,360038
1631290368148,65197,330862,360041
1631290368158,65151,330866,360001
1631290368168,65128,330825,360010
1631290368178,65123,330814,360002
1631290368188,65120,330829,359996
1631290368198,65098,330850,359982
1631290368208,65094,330827,359991
1631290368218,65082,330840,359978
1631290368228,65087,330825,360003
1631290368238,65081,330773,359978
1631290368248,65067,330795,359999
1631290368258,65070,330805,359992
1631290368268,65074,330776,359991
1631290368278,65052,330734,359968
1631290368288,65052,330744,360011
1631290368298,65055,330750,360034
1631290368308,65048,330765,359996
1631290368318,65058,330797,360002
1631290368328,65054,330768,360009
1631290368338,65043,330792,359990
1631290368348,65035,330743,359987
1631290368358,65037,330740,359983
1631290368368,65036,330739,360020
1631290368378,65040,330791,360004
1631290368388,65040,330767,360040
1631290368398,65055,330785,360012
1631290368408,65053,330773,360013
1631290368418,65040,330819,360015
1631290368428,65069,330765,359974
1631290368438,65063,330765,360005
1631290368448,65073,330803,360025
1631290368458,65068,330820,360015
1631290368468,65069,330841,359976
1631290368478,65088,330833,360034
1631290368488,65088,330834,359990
1631290368498,65096,330818,360038
1631290368508,65116,330832,360015
1631290368518,65096,330850,360016
1631290368528,65121,330868,360043
1631290368538,65136,330896,360046
1631290368548,65142,330891,360065
1631290368558,65152,330909,360025
1631290368568,65172,330890,360065
1631290368578,65183,330875,360072
1631290368588,65188,330925,360118
1631290368598,65200,330886,360029
1631290368608,65196,330924,360068
1631290368618,65212,330960,360099
1631290368628,65219,330966,360071
1631290368638,65238,331020,360057
1631290368648,65263,331000,360143
1631290368658,65268,330975,360118
1631290368668,65277,331022,360121
1631290368678,65302,331037,360104
1631290368688,65299,331071,360147
1631290368698,65317,331028,360185
1631290368708,65329,331042,360125
1631290368718,65350,331070,360197
1631290368728,65357,331059,360168
1631290368738,65373,331086,360233
1631290368748,65383,331151,360232
1631290368758,65415,331159,360217
1631290368768,65424,331168,360221
1631290368778,65437,331166,360184
1631290368788,65451,331182,360239
1631290368798,65494,331213,360266
1631290368808,65495,331212,360275
1631290368818,65516,331253,360273
1631290368828,65540,331263,360325
1631290368838,65552,331281,360329
1631290368848,65563,331267,360321
1631290368858,65576,331234,360325
1631290368868,65578,331234,360331
1631290368878,65581,331234,360382
1631290368888,65562,331183,360396
1631290368898,65534,331189,360343
1631290368908,65518,331160,360357
1631290368918,65482,331129,360367
1631290368928,65459,331097,360323
1631290368938,65434,331059,360331
1631290368948,65415,331042,360337
1631290368958,65405,331067,360306
1631290368968,65397,331047,360310
1631290368978,65375,331054,360361
1631290368988,65359,330997,360299
1631290368998,65329,331030,360257
1631290369008,65304,330975,360324
1631290369018,65304,330979,360278
1631290369028,65286,330954,360261
1631290369038,65268,330971,360287
1631290369048,65265,330951,360310
1631290369058,65228,330906,360265
1631290369068,65240,330930,360287
1631290369078,65228,330957,360266
1631290369088,65214,330944,360292
1631290369098,65218,330928,360296
1631290369108,65192,330956,360266
1631290369118,65200,330944,360295
1631290369128,65192,330929,360256
1631290369138,65178,330884,360222
1631290369148,65192,330870,360255
1631290369158,65170,330925,360250
1631290369168,65166,330960,360247
1631290369178,65177,330853,360209
1631290369188,65157,330876,360230
1631290369198,65152,330896,360214
1631290369208,65162,330879,360280
1631290369218,65157,330891,360272
1631290369228,65141,330863,360229
1631290369238,65158,330895,360236
1631290369248,65137,330876,360239
1631290369258,65153,330897,360250
1631290369268,65146,330874,360255
1631290369278,65157,330922,360263
1631290369288,65153,330927,360300
1631290369298,65160,330916,360255
1631290369308,65167,330934,360287
1631290369318,65177,330954,360276
1631290369328,65187,330975,360287
1631290369338,65186,330961,360290
1631290369348,65193,330956,360300
1631290369358,65203,330975,360307
1631290369368,65223,330980,360314
1631290369378,65222,331002,360340
1631290369388,65252,330971,360337
1631290369398,65255,331030,360379
1631290369408,65267,331012,360378
1631290369418,65267,331015,360378
1631290369428,65282,331021,360406
1631290369438,65293,331003,360380
1631290369448,65318,331055,360435
1631290369458,65316,331044,360430
1631290369468,65344,331093,360405
1631290369478,65349,331102,360438
1631290369488,65371,331118,360445
1631290369498,65363,331120,360437
1631290369508,65368,331120,360460
1631290369518,65381,331137,360464
1631290369528,65393,331115,360464
1631290369538,65421,331191,360487
1631290369548,65438,331145,360465
1631290369558,65424,331201,360485
1631290369568,65453,331179,360486
1631290369578,65471,331217,360522
1631290369588,65478,331246,360501
1631290369598,65500,331282,360573
1631290369608,65528,331271,360551
1631290369618,65523,331240,360566
1631290369628,65549,331285,360552
1631290369638,65558,331324,360561
1631290369648,65586,331315,360593
1631290369658,65588,331355,360568
1631290369668,65601,331369,360600
1631290369678,65620,331362,360610
1631290369688,65639,331357,360617
1631290369698,65653,331383,360612
1631290369708,65664,331393,360618
1631290369718,65681,331361,360642
1631290369728,65694,331400,360661
1631290369738,65704,331388,360693
1631290369748,65699,331423,360672
1631290369758,65699,331342,360621
1631290369768,65703,331358,360690
1631290369778,65688,331307,360650
1631290369788,65669,331232,360694
1631290369798,65629,331264,360653
1631290369808,65627,331259,360680
1631290369818,65603,331259,360696
1631290369828,65578,331248,360635
1631290369838,65569,331218,360688
1631290369848,65555,331229,360675
1631290369858,65531,331216,360626
1631290369868,65517,331180,360622
1631290369878,65491,331159,360580
1631290369888,65483,331174,360612
1631290369898,65469,331175,360652
1631290369908,65443,331198,360608
1631290369918,65432,331167,360601
1631290369928,65427,331136,360605
1631290369938,65409,331100,360607
1631290369948,65420,331099,360614
1631290369958,65416,331143,360634
1631290369968,65398,331125,360598
1631290369978,65380,331131,360588
1631290369988,65387,331111,360604
1631290369998,65382,331111,360599
1631290370008,65384,331157,360580
1631290370018,65396,331087,360575
1631290370028,65386,331155,360605
1631290370038,65362,331092,360620
1631290370048,65372,331102,360568
1631290370058,65379,331120,360569
1631290370068,65372,331146,360644
1631290370078,65354,331160,360605
1631290370088,65356,331131,360613
1631290370098,65366,331115,360607
1631290370108,65367,331147,360559
1631290370118,65360,331088,360607
1631290370128,65374,331121,360580
1631290370138,65365,331119,360590
1631290370148,65364,331134,360566
1631290370158,65365,331151,360583
1631290370168,65369,331173,360599
1631290370178,65382,331175,360621
1631290370188,65370,331146,360617
1631290370198,65399,331186,360611
1631290370208,65404,331180,360591
1631290370218,65398,331193,360624
1631290370228,65408,331124,360648
1631290370238,65415,331192,360656
1631290370248,65431,331217,360646
1631290370258,65444,331233,360634
1631290370268,65459,331236,360590
1631290370278,65448,331248,360647
1631290370288,65481,331255,360634
1631290370298,65481,331246,360636
1631290370308,65492,331244,360651
1631290370318,65489,331255,360672
1631290370328,65504,331344,360658
1631290370338,65524,331270,360649
1631290370348,65528,331340,360708
1631290370358,65540,331330,360694
1631290370368,65549,331347,360690
1631290370378,65577,331354,360628
1631290370388,65581,331346,360705
1631290370398,65592,331383,360689
1631290370408,65609,331396,360669
1631290370418,65616,331426,360708
1631290370428,65615,331431,360698
1631290370438,65623,331421,360731
1631290370448,65642,331449,360764
1631290370458,65646,331469,360719
1631290370468,65674,331474,360725
1631290370478,65679,331476,360787
1631290370488,65685,331482,360742
1631290370498,65718,331499,360766
1631290370508,65724,331585,360798
1631290370518,65741,331551,360766
1631290370528,65764,331548,360779
1631290370538,65772,331585,360806
1631290370548,65784,331573,360821
1631290370558,65803,331616,360821
1631290370568,65825,331623,360814
1631290370578,65840,331590,360841
1631290370588,65864,331677,360864
1631290370598,65882,331669,360841
1631290370608,65900,331664,360875
1631290370618,65915,331671,360833
1631290370628,65911,331673,360868
1631290370638,65922,331638,360868
1631290370648,65920,331585,360857
1631290370658,65917,331622,360906
1631290370668,65895,331612,360917
1631290370678,65883,331557,360861
1631290370688,65854,331527,360866
1631290370698,65827,331540,360871
1631290370708,65815,331505,360860
1631290370718,65785,331496,360854
1631290370728,65762,331456,360863
1631290370738,65747,331457,360808
1631290370748,65728,331493,360829
1631290370758,65702,331399,360857
1631290370768,65699,331448,360817
1631290370778,65684,331401,360822
1631290370788,65663,331429,360820
1631290370798,65650,331421,360804
1631290370808,65627,331387,360801
1631290370818,65604,331395,360792
1631290370828,65583,331366,360817
1631290370838,65573,331348,360800
1631290370848,65549,331386,360757
1631290370858,65533,331360,360772
1631290370868,65524,331350,360784
1631290370878,65508,331363,360804
1631290370888,65514,331334,360808
1631290370898,65498,331296,360753
1631290370908,65483,331307,360774
1631290370918,65478,331308,360779
1631290370928,65464,331309,360751
1631290370938,65470,331290,360781
1631290370948,65451,331314,360809
1631290370958,65444,331254,360760
1631290370968,65438,331300,360781
1631290370978,65423,331260,360714
1631290370988,65434,331289,360723
1631290370998,65411,331265,360739
1631290371008,65416,331259,360716
1631290371018,65396,331305,360738
1631290371028,65418,331253,360731
1631290371038,65400,331287,360683
1631290371048,65394,331251,360702
1631290371058,65378,331278,360668
1631290371068,65369,331243,360618
1631290371078,65367,331236,360596
1631290371088,65359,331194,360585
1631290371098,65358,331219,360566
1631290371108,65349,331192,360553
1631290371118,65343,331227,360546
1631290371128,65349,331217,360537
1631290371138,65344,331244,360515
1631290371148,65359,331208,360515
1631290371158,65386,331263,360534
1631290371168,65380,331272,360536
1631290371178,65396,331262,360540
1631290371188,65388,331241,360560
1631290371198,65398,331263,360549
1631290371208,65413,331328,360565
1631290371218,65421,331315,360605
1631290371228,65450,331294,360616
1631290371238,65446,331353,360589
1631290371248,65469,331320,360630
1631290371258,65484,331303,360618
1631290371268,65503,331341,360669
1631290371278,65492,331375,360614
1631290371288,65506,331394,360650
1631290371298,65525,331415,360671
1631290371308,65532,331430,360719
1631290371318,65550,331461,360672
1631290371328,65560,331467,360689
1631290371338,65564,331473,360696
1631290371348,65584,331432,360700
1631290371358,65585,331490,360740
1631290371368,65604,331518,360699
1631290371378,65613,331522,360721
1631290371388,65627,331496,360760
1631290371398,65635,331536,360746
1631290371408,65664,331567,360779
1631290371418,65676,331555,360762
1631290371428,65695,331583,360775
1631290371438,65689,331581,360766
1631290371448,65713,331587,360831
1631290371458,65723,331606,360773
1631290371468,65733,331633,360760
1631290371478,65735,331654,360757
1631290371488,65767,331674,360766
1631290371498,65775,331691,360763
1631290371508,65778,331718,360806
1631290371518,65811,331703,360799
1631290371528,65827,331687,360798
1631290371538,65831,331739,360806
1631290371548,65835,331748,360824
1631290371558,65855,331695,360864
1631290371568,65854,331691,360850
1631290371578,65845,331683,360877
1631290371588,65820,331616,360882
1631290371598,65798,331638,360826
1631290371608,65767,331588,360840
1631290371618,65740,331607,360827
1631290371628,65727,331549,360814
1631290371638,65700,331509,360808
1631290371648,65682,331518,360859
1631290371658,65657,331541,360788
1631290371668,65618,331436,360800
1631290371678,65610,331487,360829
1631290371688,65584,331487,360773
1631290371698,65567,331437,360772
1631290371708,65547,331426,360770
1631290371718,65542,331443,360774
1631290371728,65518,331375,360777
1631290371738,65502,331377,360780
1631290371748,65473,331368,360754
1631290371758,65434,331386,360739
1631290371768,65420,331305,360674
1631290371778,65394,331352,360734
1631290371788,65397,331294,360707
1631290371798,65386,331314,360672
1631290371808,65365,331329,360658
1631290371818,65356,331341,360647
1631290371828,65354,331305,360632
1631290371838,65328,331325,360650
1631290371848,65322,331309,360668
1631290371858,65318,331305,360688
1631290371868,65313,331277,360655
1631290371878,65312,331240,360660
1631290371888,65302,331305,360639
1631290371898,65303,331260,360696
1631290371908,65294,331273,360653
1631290371918,65265,331274,360684
1631290371928,65275,331239,360638
1631290371938,65264,331239,360665
1631290371948,65283,331265,360641
1631290371958,65272,331270,360649
1631290371968,65266,331254,360637
1631290371978,65268,331311,360670
1631290371988,65275,331261,360654
1631290371998,65267,331277,360650
1631290372008,65263,331272,360636
1631290372018,65268,331307,360644
1631290372028,65272,331281,360675
1631290372038,65291,331316,360639
1631290372048,65287,331345,360694
1631290372058,65291,331322,360618
1631290372068,65287,331335,360679
1631290372078,65300,331291,360676
1631290372088,65293,331331,360678
1631290372098,65291,331318,360674
1631290372108,65298,331335,360651
1631290372118,65292,331351,360664
1631290372128,65306,331394,360663
1631290372138,65311,331370,360673
1631290372148,65313,331363,360597
1631290372158,65324,331326,360675
1631290372168,65320,331375,360634
1631290372178,65332,331364,360675
1631290372188,65343,331385,360669
1631290372198,65365,331443,360682
1631290372208,65380,331436,360670
1631290372218,65379,331464,360653
1631290372228,65391,331463,360682
1631290372238,65402,331453,360680
1631290372248,65406,331463,360721
1631290372258,65426,331502,360704
1631290372268,65435,331509,360711
1631290372278,65448,331500,360757
1631290372288,65466,331523,360772
1631290372298,65487,331582,360750
1631290372308,65496,331614,360739
1631290372318,65504,331593,360773
1631290372328,65524,331637,360783
1631290372338,65522,331607,360796
1631290372348,65555,331633,360779
1631290372358,65566,331675,360831
1631290372368,65576,331698,360787
1631290372378,65592,331713,360801
1631290372388,65601,331731,360852
1631290372398,65618,331737,360827
1631290372408,65635,331743,360857
1631290372418,65642,331751,360853
1631290372428,65657,331751,360847
1631290372438,65682,331809,360845
1631290372448,65684,331781,360858
