timestamp,green,ir,red
1631290337180,39935,264104,270100
1631290337190,39956,264089,270089
1631290337200,39983,264157,270058
1631290337210,40007,264197,270065
1631290337220,40034,264224,270082
1631290337230,40051,264250,270043
1631290337240,40078,264238,270049
1631290337250,40109,264241,270045
1631290337260,40122,264257,270059
1631290337270,40149,264280,270045
1631290337280,40176,264309,270070
1631290337290,40204,264321,270040
1631290337300,40224,264377,270053
1631290337310,40246,264349,270060
1631290337320,40286,264372,270054
1631290337330,40305,264466,270052
1631290337340,40340,264447,270072
1631290337350,40370,264483,270056
1631290337360,40398,264497,270077
1631290337370,40428,264538,270071
1631290337380,40463,264541,270088
1631290337390,40494,264559,270122
1631290337400,40523,264621,270142
1631290337410,40555,264578,270125
1631290337420,40574,264571,270128
1631290337430,40590,264594,270132
1631290337440,40589,264581,270130
1631290337450,40586,264541,270135
1631290337460,40584,264503,270115
1631290337470,40566,264491,270132
1631290337480,40541,264434,270108
1631290337490,40508,264429,270099
1631290337500,40490,264424,270065
1631290337510,40470,264410,270059
1631290337520,40451,264430,270065
1631290337530,40440,264387,270034
1631290337540,40423,264368,270044
1631290337550,40422,264377,270064
1631290337560,40421,264379,270051
1631290337570,40420,264383,270069
1631290337580,40424,264389,270098
1631290337590,40420,264377,270092
1631290337600,40438,264340,270125
1631290337610,40437,264378,270134
1631290337620,40425,264362,270121
1631290337630,40434,264378,270130
1631290337640,40432,264335,270122
1631290337650,40449,264355,270146
1631290337660,40440,264378,270135
1631290337670,40444,264389,270144
1631290337680,40453,264404,270161
1631290337690,40457,264357,270122
1631290337700,40473,264421,270145
1631290337710,40468,264400,270134
1631290337720,40466,264418,270121
1631290337730,40475,264434,270180
1631290337740,40478,264420,270148
1631290337750,40479,264459,270163
1631290337760,40483,264450,270147
1631290337770,40491,264423,270133
1631290337780,40499,264449,270172
1631290337790,40511,264458,270170
1631290337800,40509,264445,270170
1631290337810,40510,264454,270169
1631290337820,40526,264478,270136
1631290337830,40532,264501,270152
1631290337840,40545,264500,270149
1631290337850,40554,264527,270196
1631290337860,40579,264517,270163
1631290337870,40590,264472,270190
1631290337880,40611,264492,270217
1631290337890,40631,264528,270222
1631290337900,40660,264541,270250
1631290337910,40681,264527,270315
1631290337920,40708,264515,270278
1631290337930,40732,264566,270315
1631290337940,40744,264525,270342
1631290337950,40762,264553,270318
1631290337960,40794,264546,270352
1631290337970,40808,264603,270399
1631290337980,40821,264607,270380
1631290337990,40834,264621,270407
1631290338000,40858,264603,270403
1631290338010,40866,264559,270441
1631290338020,40884,264628,270428
1631290338030,40904,264597,270439
1631290338040,40921,264609,270456
1631290338050,40944,264590,270477
1631290338060,40967,264627,270501
1631290338070,40982,264677,270524
1631290338080,41001,264650,270513
1631290338090,41008,264653,270527
1631290338100,41023,264633,270553
1631290338110,41038,264631,270565
1631290338120,41059,264702,270549
1631290338130,41091,264683,270621
1631290338140,41102,264684,270651
1631290338150,41133,264735,270648
1631290338160,41146,264696,270680
1631290338170,41170,264640,270713
1631290338180,41189,264717,270728
1631290338190,41205,264719,270738
1631290338200,41221,264722,270770
1631290338210,41217,264719,270759
1631290338220,41225,264702,270800
1631290338230,41208,264667,270785
1631290338240,41182,264651,270762
1631290338250,41137,264595,270751
1631290338260,41094,264549,270735
1631290338270,41044,264513,270708
1631290338280,41009,264509,270718
1631290338290,40968,264461,270710
1631290338300,40933,264423,270708
1631290338310,40906,264417,270718
1631290338320,40853,264392,270709
1631290338330,40827,264351,270693
1631290338340,40793,264345,270674
1631290338350,40771,264299,270631
1631290338360,40747,264319,270657
1631290338370,40722,264309,270643
1631290338380,40709,264293,270651
1631290338390,40685,264315,270642
1631290338400,40670,264239,270639
1631290338410,40658,264289,270625
1631290338420,40650,264261,270614
1631290338430,40644,264261,270585
1631290338440,40626,264251,270629
1631290338450,40629,264268,270609
1631290338460,40622,264267,270597
1631290338470,40602,264233,270604
1631290338480,40599,264250,270583
1631290338490,40588,264190,270581
1631290338500,40583,264230,270589
1631290338510,40564,264215,270589
1631290338520,40554,264210,270607
1631290338530,40541,264219,270570
1631290338540,40544,264209,270588
1631290338550,40525,264160,270582
1631290338560,40516,264169,270569
1631290338570,40514,264172,270603
1631290338580,40506,264166,270591
1631290338590,40510,264143,270573
1631290338600,40490,264195,270583
1631290338610,40505,264178,270571
1631290338620,40500,264163,270559
1631290338630,40504,264201,270584
1631290338640,40505,264157,270570
1631290338650,40506,264189,270591
1631290338660,40509,264176,270590
1631290338670,40519,264191,270598
1631290338680,40516,264159,270611
1631290338690,40516,264199,270560
1631290338700,40523,264192,270580
1631290338710,40535,264197,270575
1631290338720,40547,264201,270603
1631290338730,40542,264215,270585
1631290338740,40555,264209,270588
1631290338750,40563,264249,270542
1631290338760,40574,264252,270605
1631290338770,40584,264215,270575
1631290338780,40593,264258,270571
1631290338790,40605,264248,270560
1631290338800,40601,264278,270594
1631290338810,40612,264247,270586
1631290338820,40633,264271,270590
1631290338830,40642,264260,270596
1631290338840,40646,264277,270572
1631290338850,40651,264266,270570
1631290338860,40666,264333,270586
1631290338870,40680,264311,270575
1631290338880,40690,264301,270601
1631290338890,40690,264324,270587
1631290338900,40715,264323,270608
1631290338910,40732,264354,270564
1631290338920,40745,264354,270588
1631290338930,40751,264354,270616
1631290338940,40773,264387,270605
1631290338950,40791,264388,270591
1631290338960,40794,264384,270617
1631290338970,40802,264396,270641
1631290338980,40814,264427,270621
1631290338990,40814,264377,270661
1631290339000,40809,264379,270637
1631290339010,40781,264305,270635
1631290339020,40742,264322,270620
1631290339030,40699,264258,270604
1631290339040,40654,264230,270559
1631290339050,40599,264176,270582
1631290339060,40559,264142,270528
1631290339070,40507,264167,270536
1631290339080,40450,264074,270531
1631290339090,40409,264019,270505
1631290339100,40370,264043,270474
1631290339110,40323,263961,270479
1631290339120,40295,263995,270493
1631290339130,40264,263960,270471
1631290339140,40232,263914,270459
1631290339150,40188,263894,270466
1631290339160,40161,263894,270472
1631290339170,40136,263910,270437
1631290339180,40106,263841,270468
1631290339190,40088,263858,270468
1631290339200,40064,263849,270474
1631290339210,40038,263810,270480
1631290339220,40014,263810,270501
1631290339230,39998,263841,270463
1631290339240,39986,263805,270466
1631290339250,39973,263817,270463
1631290339260,39955,263776,270443
1631290339270,39932,263780,270453
1631290339280,39922,263746,270463
1631290339290,39906,263723,270460
1631290339300,39887,263753,270456
1631290339310,39884,263685,270438
1631290339320,39865,263690,270443
1631290339330,39853,263717,270447
1631290339340,39848,263683,270501
1631290339350,39839,263730,270474
1631290339360,39831,263654,270520
1631290339370,39816,263636,270509
1631290339380,39821,263666,270499
1631290339390,39818,263664,270512
1631290339400,39819,263611,270534
1631290339410,39815,263615,270526
1631290339420,39816,263623,270573
1631290339430,39826,263648,270568
1631290339440,39810,263600,270587
1631290339450,39820,263669,270588
1631290339460,39816,263606,270604
1631290339470,39821,263590,270602
1631290339480,39826,263596,270628
1631290339490,39827,263603,270621
1631290339500,39830,263606,270629
1631290339510,39839,263636,270657
1631290339520,39842,263629,270653
1631290339530,39836,263636,270654
1631290339540,39848,263623,270644
1631290339550,39847,263610,270677
1631290339560,39852,263604,270683
1631290339570,39858,263575,270676
1631290339580,39872,263618,270660
1631290339590,39849,263613,270665
1631290339600,39853,263622,270666
1631290339610,39872,263601,270658
1631290339620,39859,263564,270648
1631290339630,39851,263582,270615
1631290339640,39853,263585,270624
1631290339650,39852,263608,270636
1631290339660,39850,263575,270596
1631290339670,39854,263589,270596
1631290339680,39856,263596,270587
1631290339690,39858,263596,270570
1631290339700,39865,263604,270584
1631290339710,39860,263588,270552
1631290339720,39870,263570,270576
1631290339730,39856,263571,270560
1631290339740,39863,263591,270551
1631290339750,39862,263546,270575
1631290339760,39861,263580,270545
1631290339770,39853,263588,270508
1631290339780,39841,263545,270521
1631290339790,39818,263547,270498
1631290339800,39786,263455,270484
1631290339810,39742,263443,270483
1631290339820,39686,263355,270429
1631290339830,39626,263352,270435
1631290339840,39570,263324,270394
1631290339850,39513,263312,270355
1631290339860,39456,263214,270332
1631290339870,39407,263200,270349
1631290339880,39351,263159,270295
1631290339890,39297,263087,270274
1631290339900,39249,263074,270276
1631290339910,39203,263013,270285
1631290339920,39161,263017,270263
1631290339930,39121,262969,270260
1631290339940,39073,262996,270225
1631290339950,39043,262952,270243
1631290339960,39004,262925,270217
1631290339970,38970,262868,270218
1631290339980,38928,262877,270194
1631290339990,38903,262858,270208
1631290340000,38880,262852,270221
1631290340010,38855,262799,270188
1631290340020,38840,262767,270209
1631290340030,38816,262769,270228
1631290340040,38795,262751,270194
1631290340050,38779,262749,270203
1631290340060,38766,262779,270205
1631290340070,38740,262740,270210
1631290340080,38731,262709,270211
1631290340090,38717,262663,270226
1631290340100,38698,262626,270202
1631290340110,38672,262606,270217
1631290340120,38650,262610,270160
1631290340130,38628,262588,270157
1631290340140,38604,262589,270133
1631290340150,38587,262608,270151
1631290340160,38572,262588,270121
1631290340170,38554,262572,270084
1631290340180,38537,262563,270083
1631290340190,38523,262545,270058
1631290340200,38511,262560,270025
1631290340210,38499,262532,270024
1631290340220,38480,262548,270023
1631290340230,38491,262537,270030
1631290340240,38476,262566,270002
1631290340250,38479,262503,269950
1631290340260,38468,262505,269958
1631290340270,38459,262492,269972
1631290340280,38455,262520,269949
1631290340290,38443,262531,269957
1631290340300,38446,262553,269921
1631290340310,38442,262548,269923
1631290340320,38439,262526,269897
1631290340330,38444,262563,269876
1631290340340,38444,262579,269915
1631290340350,38441,262559,269890
1631290340360,38452,262590,269905
1631290340370,38453,262572,269873
1631290340380,38451,262576,269947
1631290340390,38464,262580,269887
1631290340400,38476,262618,269895
1631290340410,38488,262614,269910
1631290340420,38492,262631,269894
1631290340430,38502,262635,269905
1631290340440,38519,262639,269896
1631290340450,38532,262648,269916
1631290340460,38543,262691,269938
1631290340470,38545,262717,269901
1631290340480,38553,262688,269913
1631290340490,38569,262722,269940
1631290340500,38570,262685,269859
1631290340510,38569,262715,269844
1631290340520,38573,262713,269847
1631290340530,38581,262757,269845
1631290340540,38583,262730,269778
1631290340550,38561,262687,269834
1631290340560,38537,262699,269778
1631290340570,38511,262708,269789
1631290340580,38469,262624,269752
1631290340590,38421,262564,269769
1631290340600,38375,262597,269710
1631290340610,38330,262536,269681
1631290340620,38292,262494,269680
1631290340630,38244,262476,269669
1631290340640,38208,262431,269629
1631290340650,38168,262443,269617
1631290340660,38129,262406,269599
1631290340670,38102,262412,269613
1631290340680,38073,262357,269576
1631290340690,38038,262367,269536
1631290340700,38008,262344,269555
1631290340710,37975,262340,269599
1631290340720,37947,262287,269536
1631290340730,37925,262327,269534
1631290340740,37895,262291,269541
1631290340750,37880,262278,269498
1631290340760,37870,262250,269489
1631290340770,37854,262310,269475
1631290340780,37846,262260,269454
1631290340790,37837,262247,269498
1631290340800,37829,262223,269474
1631290340810,37827,262259,269456
1631290340820,37813,262224,269450
1631290340830,37809,262229,269421
1631290340840,37797,262215,269420
1631290340850,37791,262189,269426
1631290340860,37796,262228,269434
1631290340870,37769,262227,269443
1631290340880,37772,262192,269430
1631290340890,37764,262192,269411
1631290340900,37770,262189,269404
1631290340910,37751,262190,269410
1631290340920,37774,262207,269419
1631290340930,37762,262232,269458
1631290340940,37770,262192,269408
1631290340950,37772,262238,269419
1631290340960,37775,262219,269449
1631290340970,37793,262215,269418
1631290340980,37783,262244,269392
1631290340990,37788,262238,269405
1631290341000,37791,262236,269397
1631290341010,37797,262252,269394
1631290341020,37798,262199,269386
1631290341030,37816,262291,269343
1631290341040,37816,262281,269384
1631290341050,37818,262276,269337
1631290341060,37828,262290,269369
1631290341070,37840,262298,269367
1631290341080,37852,262322,269390
1631290341090,37864,262326,269364
1631290341100,37877,262351,269361
1631290341110,37898,262377,269406
1631290341120,37904,262367,269385
1631290341130,37936,262325,269397
1631290341140,37943,262327,269390
1631290341150,37956,262382,269401
1631290341160,37978,262362,269429
1631290341170,37989,262428,269422
1631290341180,38011,262426,269433
1631290341190,38024,262484,269421
1631290341200,38055,262472,269426
1631290341210,38070,262480,269477
1631290341220,38087,262442,269479
1631290341230,38110,262508,269448
1631290341240,38118,262515,269457
1631290341250,38135,262494,269439
1631290341260,38158,262515,269482
1631290341270,38174,262591,269478
1631290341280,38191,262573,269465
1631290341290,38215,262569,269466
1631290341300,38231,262549,269501
1631290341310,38250,262583,269490
1631290341320,38255,262586,269481
1631290341330,38247,262593,269491
1631290341340,38237,262553,269486
1631290341350,38208,262527,269482
1631290341360,38172,262485,269463
1631290341370,38123,262467,269433
1631290341380,38074,262435,269394
1631290341390,38046,262392,269404
1631290341400,38004,262348,269393
1631290341410,37967,262404,269398
1631290341420,37932,262316,269391
1631290341430,37900,262306,269358
1631290341440,37868,262256,269382
1631290341450,37843,262260,269352
1631290341460,37810,262240,269346
1631290341470,37780,262230,269364
1631290341480,37746,262207,269346
1631290341490,37727,262142,269333
1631290341500,37696,262136,269338
1631290341510,37659,262161,269309
1631290341520,37616,262098,269261
1631290341530,37580,262115,269224
1631290341540,37540,262047,269168
1631290341550,37513,262102,269135
1631290341560,37494,262087,269114
1631290341570,37483,262097,269088
1631290341580,37476,262140,269101
1631290341590,37468,262107,269060
1631290341600,37462,262100,269042
1631290341610,37449,262110,269036
1631290341620,37448,262140,268985
1631290341630,37450,262134,268981
1631290341640,37440,262115,268987
1631290341650,37441,262155,269011
1631290341660,37444,262138,268962
1631290341670,37447,262152,268976
1631290341680,37438,262192,268958
1631290341690,37439,262159,268948
1631290341700,37456,262161,268970
1631290341710,37487,262185,268962
1631290341720,37487,262206,268971
1631290341730,37488,262194,268973
1631290341740,37481,262234,268934
1631290341750,37474,262241,268934
1631290341760,37481,262245,268886
1631290341770,37487,262279,268886
1631290341780,37500,262277,268891
1631290341790,37521,262321,268865
1631290341800,37548,262327,268901
1631290341810,37579,262346,268888
1631290341820,37607,262364,268918
1631290341830,37631,262390,268957
1631290341840,37648,262400,268939
1631290341850,37674,262388,268943
1631290341860,37688,262427,268959
1631290341870,37712,262429,268975
1631290341880,37742,262461,268981
1631290341890,37760,262480,268998
1631290341900,37787,262481,269005
1631290341910,37817,262486,269013
1631290341920,37848,262505,269039
1631290341930,37869,262524,269111
1631290341940,37909,262548,269133
1631290341950,37952,262570,269192
1631290341960,37976,262605,269195
1631290341970,38005,262607,269215
1631290341980,38032,262620,269219
1631290341990,38055,262648,269247
1631290342000,38086,262648,269295
1631290342010,38111,262712,269302
1631290342020,38139,262675,269322
1631290342030,38168,262717,269349
1631290342040,38194,262725,269332
1631290342050,38218,262720,269358
1631290342060,38232,262769,269351
1631290342070,38247,262758,269331
1631290342080,38267,262802,269336
1631290342090,38297,262760,269333
1631290342100,38320,262831,269349
1631290342110,38341,262834,269327
1631290342120,38357,262823,269357
1631290342130,38372,262855,269375
1631290342140,38386,262858,269371
1631290342150,38378,262815,269315
1631290342160,38354,262835,269330
1631290342170,38315,262777,269291
1631290342180,38261,262749,269252
1631290342190,38212,262743,269225
1631290342200,38168,262702,269162
1631290342210,38121,262687,269169
1631290342220,38083,262653,269119
1631290342230,38049,262622,269076
1631290342240,38021,262649,269043
1631290342250,37987,262598,269051
1631290342260,37966,262601,269054
1631290342270,37936,262602,269005
1631290342280,37910,262595,269017
1631290342290,37902,262531,268972
1631290342300,37872,262525,268979
1631290342310,37857,262542,268966
1631290342320,37844,262531,268995
1631290342330,37842,262500,269035
1631290342340,37831,262497,269045
1631290342350,37809,262498,269044
1631290342360,37805,262513,268993
1631290342370,37789,262460,268986
1631290342380,37785,262499,268957
1631290342390,37784,262492,268982
1631290342400,37790,262507,268989
1631290342410,37798,262471,268980
1631290342420,37803,262446,269000
1631290342430,37814,262492,269023
1631290342440,37822,262524,268997
1631290342450,37828,262482,269006
1631290342460,37834,262496,269068
1631290342470,37848,262527,269069
1631290342480,37861,262513,269117
1631290342490,37866,262519,269080
1631290342500,37879,262548,269127
1631290342510,37879,262515,269149
1631290342520,37898,262514,269124
1631290342530,37906,262523,269162
1631290342540,37926,262532,269168
1631290342550,37926,262550,269214
1631290342560,37951,262568,269210
1631290342570,37965,262547,269248
1631290342580,37979,262535,269278
1631290342590,37997,262590,269303
1631290342600,38026,262575,269314
1631290342610,38039,262569,269318
1631290342620,38056,262587,269357
1631290342630,38078,262587,269350
1631290342640,38097,262632,269335
1631290342650,38107,262595,269371
1631290342660,38121,262609,269362
1631290342670,38140,262657,269403
1631290342680,38155,262635,269407
1631290342690,38171,262649,269433
1631290342700,38197,262685,269442
1631290342710,38219,262669,269450
1631290342720,38239,262644,269455
1631290342730,38253,262691,269490
1631290342740,38272,262715,269475
1631290342750,38291,262685,269503
1631290342760,38311,262746,269537
1631290342770,38335,262733,269526
1631290342780,38348,262712,269525
1631290342790,38372,262779,269532
1631290342800,38388,262777,269569
1631290342810,38402,262789,269564
1631290342820,38424,262767,269568
1631290342830,38432,262793,269543
1631290342840,38468,262807,269558
1631290342850,38493,262843,269569
1631290342860,38501,262819,269584
1631290342870,38530,262865,269619
1631290342880,38550,262857,269614
1631290342890,38584,262872,269640
1631290342900,38611,262908,269641
1631290342910,38623,262909,269642
1631290342920,38649,262946,269645
1631290342930,38679,262927,269680
1631290342940,38698,263011,269684
1631290342950,38713,262935,269736
1631290342960,38725,262943,269699
1631290342970,38714,262961,269733
1631290342980,38706,262926,269692
1631290342990,38674,262909,269716
1631290343000,38636,262847,269681
1631290343010,38590,262823,269673
1631290343020,38544,262807,269580
1631290343030,38500,262756,269572
1631290343040,38466,262759,269574
1631290343050,38428,262700,269547
1631290343060,38397,262662,269539
1631290343070,38365,262644,269551
1631290343080,38333,262632,269470
1631290343090,38307,262631,269496
1631290343100,38278,262631,269486
1631290343110,38249,262595,269456
1631290343120,38222,262545,269467
1631290343130,38213,262542,269475
1631290343140,38183,262516,269460
1631290343150,38148,262523,269469
1631290343160,38142,262518,269459
1631290343170,38120,262514,269482
1631290343180,38113,262473,269441
1631290343190,38107,262469,269484
1631290343200,38097,262473,269472
1631290343210,38090,262486,269444
1631290343220,38082,262466,269379
1631290343230,38070,262430,269423
1631290343240,38059,262405,269379
1631290343250,38042,262420,269311
1631290343260,38033,262432,269367
1631290343270,38023,262402,269313
1631290343280,38007,262398,269304
1631290343290,37991,262404,269318
1631290343300,37988,262442,269306
1631290343310,37973,262424,269257
1631290343320,37980,262411,269253
1631290343330,37972,262411,269230
1631290343340,37969,262391,269222
1631290343350,37969,262381,269245
1631290343360,37964,262396,269231
1631290343370,37963,262397,269190
1631290343380,37970,262406,269195
1631290343390,37971,262437,269176
1631290343400,37984,262417,269186
1631290343410,37994,262428,269205
1631290343420,38010,262462,269192
1631290343430,38023,262434,269237
1631290343440,38045,262450,269198
1631290343450,38058,262480,269227
1631290343460,38081,262465,269235
1631290343470,38103,262469,269258
1631290343480,38124,262489,269268
1631290343490,38133,262461,269240
1631290343500,38155,262519,269314
1631290343510,38177,262486,269299
1631290343520,38199,262519,269303
1631290343530,38220,262527,269335
1631290343540,38240,262553,269339
1631290343550,38265,262592,269381
1631290343560,38284,262582,269376
1631290343570,38308,262592,269398
1631290343580,38340,262626,269412
1631290343590,38364,262605,269417
1631290343600,38387,262684,269438
1631290343610,38416,262684,269402
1631290343620,38442,262672,269428
1631290343630,38464,262687,269448
1631290343640,38489,262688,269493
1631290343650,38516,262759,269535
1631290343660,38541,262772,269520
1631290343670,38574,262779,269572
1631290343680,38601,262816,269558
1631290343690,38634,262812,269578
1631290343700,38657,262861,269584
1631290343710,38688,262831,269642
1631290343720,38718,262864,269663
1631290343730,38744,262896,269661
1631290343740,38783,262910,269702
1631290343750,38803,262957,269717
1631290343760,38839,262923,269730
1631290343770,38871,262950,269770
1631290343780,38910,262972,269763
1631290343790,38930,262982,269816
1631290343800,38955,263011,269805
1631290343810,38983,262994,269813
1631290343820,38989,262950,269840
1631290343830,38974,262986,269840
1631290343840,38950,262922,269831
1631290343850,38924,262922,269843
1631290343860,38891,262864,269843
1631290343870,38858,262807,269813
1631290343880,38825,262813,269817
1631290343890,38793,262802,269807
1631290343900,38765,262748,269816
1631290343910,38741,262704,269816
1631290343920,38716,262740,269800
1631290343930,38697,262724,269773
1631290343940,38671,262716,269806
1631290343950,38651,262686,269760
1631290343960,38621,262684,269752
1631290343970,38596,262642,269736
1631290343980,38574,262633,269758
1631290343990,38560,262605,269742
1631290344000,38544,262592,269727
1631290344010,38532,262621,269695
1631290344020,38508,262636,269699
1631290344030,38489,262603,269682
1631290344040,38481,262562,269680
1631290344050,38482,262578,269674
1631290344060,38470,262597,269614
1631290344070,38471,262583,269609
1631290344080,38475,262602,269636
1631290344090,38473,262619,269653
1631290344100,38474,262585,269607
1631290344110,38474,262584,269681
1631290344120,38481,262610,269625
1631290344130,38467,262604,269600
1631290344140,38470,262588,269623
1631290344150,38483,262619,269600
1631290344160,38481,262620,269622
1631290344170,38489,262565,269606
1631290344180,38490,262568,269632
1631290344190,38499,262613,269591
1631290344200,38499,262635,269636
1631290344210,38512,262592,269631
1631290344220,38530,262597,269643
1631290344230,38533,262601,269658
1631290344240,38549,262634,269720
1631290344250,38577,262662,269713
1631290344260,38590,262653,269702
1631290344270,38609,262721,269729
1631290344280,38612,262684,269718
1631290344290,38639,262692,269739
1631290344300,38659,262718,269777
1631290344310,38658,262734,269753
1631290344320,38681,262748,269785
1631290344330,38712,262788,269799
1631290344340,38734,262763,269824
1631290344350,38766,262800,269855
1631290344360,38780,262796,269853
1631290344370,38806,262838,269881
1631290344380,38832,262830,269887
1631290344390,38861,262822,269946
1631290344400,38877,262889,269898
1631290344410,38903,262897,269927
1631290344420,38921,262906,269968
1631290344430,38937,262899,269962
1631290344440,38957,262916,270004
1631290344450,38982,262962,270003
1631290344460,39002,262990,270022
1631290344470,39037,262989,270010
1631290344480,39055,263008,270039
1631290344490,39077,263013,270060
1631290344500,39119,263063,270065
1631290344510,39133,263084,270103
1631290344520,39153,263094,270125
1631290344530,39182,263095,270142
1631290344540,39209,263132,270153
1631290344550,39227,263142,270173
1631290344560,39255,263177,270168
1631290344570,39283,263164,270209
1631290344580,39305,263232,270186
1631290344590,39329,263208,270243
1631290344600,39369,263223,270238
1631290344610,39384,263239,270251
1631290344620,39402,263250,270276
1631290344630,39429,263276,270296
1631290344640,39456,263317,270324
1631290344650,39475,263288,270306
1631290344660,39490,263278,270320
1631290344670,39498,263247,270342
1631290344680,39498,263255,270379
1631290344690,39487,263230,270385
1631290344700,39470,263242,270378
1631290344710,39463,263224,270405
1631290344720,39448,263134,270439
1631290344730,39430,263179,270473
1631290344740,39417,263110,270506
1631290344750,39403,263146,270520
1631290344760,39389,263098,270508
1631290344770,39381,263062,270572
1631290344780,39374,263015,270594
1631290344790,39365,263058,270614
1631290344800,39359,263023,270672
1631290344810,39369,263019,270730
1631290344820,39376,262955,270746
1631290344830,39386,262920,270814
1631290344840,39386,262897,270846
1631290344850,39388,262846,270877
1631290344860,39381,262840,270880
1631290344870,39389,262801,270948
1631290344880,39379,262807,270934
1631290344890,39380,262772,270953
1631290344900,39383,262776,270980
1631290344910,39383,262764,270985
1631290344920,39379,262758,270979
1631290344930,39382,262734,271041
1631290344940,39370,262693,271018
1631290344950,39375,262734,271003
1631290344960,39382,262724,270993
1631290344970,39384,262701,271024
1631290344980,39357,262662,271051
1631290344990,39356,262672,271026
1631290345000,39349,262686,271039
1631290345010,39356,262669,271036
1631290345020,39347,262690,271018
1631290345030,39345,262681,271073
1631290345040,39339,262663,271068
1631290345050,39340,262658,271083
1631290345060,39341,262692,271079
1631290345070,39340,262694,271071
1631290345080,39346,262655,271060
1631290345090,39357,262670,271076
1631290345100,39355,262670,271055
1631290345110,39361,262674,271077
1631290345120,39355,262662,271044
1631290345130,39372,262672,271058
1631290345140,39374,262672,271052
1631290345150,39380,262702,271100
1631290345160,39385,262709,271101
1631290345170,39387,262708,271093
1631290345180,39392,262703,271054
1631290345190,39401,262710,271070
1631290345200,39397,262729,271106
1631290345210,39402,262721,271061
1631290345220,39407,262709,271066
1631290345230,39407,262718,271017
1631290345240,39413,262722,271029
1631290345250,39416,262731,271042
1631290345260,39434,262700,271029
1631290345270,39439,262753,271018
1631290345280,39437,262774,271032
1631290345290,39454,262743,270995
1631290345300,39455,262743,270986
1631290345310,39458,262768,270970
1631290345320,39463,262782,270954
1631290345330,39471,262803,270966
1631290345340,39472,262781,270941
1631290345350,39487,262794,270924
1631290345360,39492,262837,270931
1631290345370,39504,262842,270973
1631290345380,39518,262875,270954
1631290345390,39525,262859,270952
1631290345400,39550,262884,270947
1631290345410,39559,262890,270937
1631290345420,39582,262864,270955
1631290345430,39591,262904,270953
1631290345440,39599,262954,270962
1631290345450,39619,262965,270919
1631290345460,39633,262946,270897
1631290345470,39639,262972,270910
1631290345480,39649,262945,270937
1631290345490,39653,262998,270920
1631290345500,39652,262967,270917
1631290345510,39642,262930,270878
1631290345520,39615,262887,270844
1631290345530,39590,262879,270857
1631290345540,39549,262824,270839
1631290345550,39515,262834,270823
1631290345560,39474,262808,270809
1631290345570,39439,262793,270797
1631290345580,39421,262729,270806
1631290345590,39382,262748,270783
1631290345600,39344,262691,270763
1631290345610,39323,262654,270762
1631290345620,39275,262644,270734
1631290345630,39237,262619,270673
1631290345640,39203,262592,270635
1631290345650,39165,262603,270656
1631290345660,39122,262570,270624
1631290345670,39092,262569,270582
1631290345680,39070,262519,270509
1631290345690,39047,262574,270518
1631290345700,39022,262534,270504
1631290345710,39011,262510,270473
1631290345720,38988,262521,270462
1631290345730,38983,262523,270441
1631290345740,38988,262486,270421
1631290345750,38975,262557,270410
1631290345760,38973,262542,270455
1631290345770,38967,262527,270408
1631290345780,38967,262535,270372
1631290345790,38958,262508,270379
1631290345800,38953,262529,270393
1631290345810,38934,262559,270372
1631290345820,38932,262545,270346
1631290345830,38919,262525,270310
1631290345840,38918,262550,270317
1631290345850,38910,262525,270269
1631290345860,38901,262550,270310
1631290345870,38906,262556,270292
1631290345880,38905,262556,270271
1631290345890,38902,262578,270270
1631290345900,38915,262580,270241
1631290345910,38940,262587,270282
1631290345920,38932,262651,270271
1631290345930,38943,262616,270251
1631290345940,38954,262650,270285
1631290345950,38973,262637,270214
1631290345960,38976,262675,270264
1631290345970,38991,262670,270259
1631290345980,39003,262693,270265
1631290345990,39016,262699,270237
1631290346000,39037,262734,270250
1631290346010,39046,262728,270269
1631290346020,39062,262765,270247
1631290346030,39076,262762,270268
1631290346040,39105,262754,270240
1631290346050,39118,262816,270244
1631290346060,39132,262820,270263
1631290346070,39140,262844,270269
1631290346080,39184,262850,270260
1631290346090,39202,262867,270318
1631290346100,39229,262887,270304
1631290346110,39239,262903,270283
1631290346120,39270,262943,270321
1631290346130,39296,262943,270353
1631290346140,39319,262987,270346
1631290346150,39350,262982,270365
1631290346160,39378,263019,270424
1631290346170,39402,263050,270429
1631290346180,39440,263081,270438
1631290346190,39462,263114,270458
1631290346200,39490,263080,270469
1631290346210,39510,263148,270461
1631290346220,39541,263157,270472
1631290346230,39571,263148,270536
1631290346240,39601,263173,270550
1631290346250,39617,263212,270537
1631290346260,39655,263253,270568
1631290346270,39654,263198,270581
1631290346280,39693,263249,270597
1631290346290,39706,263231,270618
1631290346300,39715,263210,270595
1631290346310,39702,263180,270620
1631290346320,39684,263221,270643
1631290346330,39664,263141,270658
1631290346340,39632,263144,270585
1631290346350,39591,263105,270565
1631290346360,39562,263033,270600
1631290346370,39528,263061,270596
1631290346380,39494,263018,270581
1631290346390,39460,263014,270588
1631290346400,39444,263005,270593
1631290346410,39408,262999,270506
1631290346420,39383,262935,270506
1631290346430,39363,262930,270489
1631290346440,39326,262885,270467
1631290346450,39306,262882,270446
1631290346460,39288,262865,270420
1631290346470,39270,262895,270431
1631290346480,39256,262858,270438
1631290346490,39241,262885,270435
1631290346500,39228,262831,270433
1631290346510,39225,262850,270453
1631290346520,39230,262816,270452
1631290346530,39233,262829,270443
1631290346540,39232,262825,270423
1631290346550,39237,262854,270449
1631290346560,39230,262889,270450
1631290346570,39238,262876,270480
1631290346580,39236,262860,270485
1631290346590,39235,262848,270461
1631290346600,39236,262849,270482
1631290346610,39232,262823,270477
1631290346620,39232,262828,270472
1631290346630,39228,262852,270468
1631290346640,39226,262825,270472
1631290346650,39227,262829,270456
1631290346660,39226,262846,270459
1631290346670,39227,262852,270435
1631290346680,39229,262852,270471
1631290346690,39228,262802,270468
1631290346700,39231,262861,270457
1631290346710,39244,262831,270425
1631290346720,39261,262825,270437
1631290346730,39282,262893,270474
1631290346740,39267,262893,270462
1631290346750,39296,262871,270470
1631290346760,39300,262930,270451
1631290346770,39314,262931,270513
1631290346780,39329,262921,270477
1631290346790,39347,262929,270480
1631290346800,39360,262985,270508
1631290346810,39377,262968,270487
1631290346820,39389,262964,270513
1631290346830,39412,262980,270503
1631290346840,39424,262989,270533
1631290346850,39440,263013,270520
1631290346860,39460,263025,270526
1631290346870,39479,263036,270544
1631290346880,39505,263045,270565
1631290346890,39510,263059,270541
1631290346900,39535,263089,270568
1631290346910,39563,263093,270579
1631290346920,39579,263100,270569
1631290346930,39605,263118,270590
1631290346940,39619,263133,270593
1631290346950,39640,263157,270616
1631290346960,39661,263170,270603
1631290346970,39684,263176,270670
1631290346980,39715,263206,270670
1631290346990,39736,263213,270699
1631290347000,39758,263232,270682
1631290347010,39783,263238,270701
1631290347020,39801,263246,270700
1631290347030,39830,263282,270728
1631290347040,39856,263279,270754
1631290347050,39877,263349,270765
1631290347060,39899,263324,270776
1631290347070,39906,263305,270784
1631290347080,39903,263296,270811
1631290347090,39892,263310,270753
1631290347100,39880,263274,270758
1631290347110,39844,263228,270749
1631290347120,39824,263184,270735
1631290347130,39787,263155,270733
1631290347140,39755,263118,270740
1631290347150,39735,263106,270737
1631290347160,39691,263123,270717
1631290347170,39664,263046,270693
1631290347180,39643,263069,270715
1631290347190,39622,263024,270675
1631290347200,39607,263009,270673
1631290347210,39580,262998,270668
1631290347220,39561,262970,270671
1631290347230,39536,262955,270648
1631290347240,39517,262995,270682
1631290347250,39494,262956,270675
1631290347260,39488,262929,270662
1631290347270,39470,262923,270647
1631290347280,39458,262952,270657
1631290347290,39460,262949,270633
1631290347300,39458,262929,270650
1631290347310,39460,262926,270649
1631290347320,39454,262926,270662
1631290347330,39451,262940,270638
1631290347340,39453,262973,270636
1631290347350,39443,262931,270625
1631290347360,39458,262942,270639
1631290347370,39457,262945,270647
1631290347380,39469,262947,270682
1631290347390,39454,262983,270646
1631290347400,39460,262929,270658
1631290347410,39456,262922,270681
1631290347420,39451,262969,270656
1631290347430,39460,262958,270651
1631290347440,39463,262942,270634
1631290347450,39462,262954,270626
1631290347460,39465,262945,270642
1631290347470,39472,263000,270654
1631290347480,39480,262975,270605
1631290347490,39494,262991,270649
1631290347500,39505,262984,270632
1631290347510,39515,262977,270642
1631290347520,39524,262971,270663
1631290347530,39542,262970,270661
1631290347540,39548,262944,270681
1631290347550,39551,262996,270682
1631290347560,39575,263041,270675
1631290347570,39584,263029,270665
1631290347580,39596,263033,270662
1631290347590,39608,263038,270669
1631290347600,39626,263062,270700
1631290347610,39647,263065,270716
1631290347620,39658,263075,270710
1631290347630,39677,263081,270735
1631290347640,39702,263139,270724
1631290347650,39721,263164,270740
1631290347660,39743,263164,270767
1631290347670,39757,263147,270763
1631290347680,39773,263168,270767
1631290347690,39810,263180,270773
1631290347700,39821,263220,270824
1631290347710,39848,263193,270795
1631290347720,39843,263209,270822
1631290347730,39864,263217,270827
1631290347740,39880,263238,270830
1631290347750,39912,263275,270817
1631290347760,39931,263270,270822
1631290347770,39948,263290,270835
1631290347780,39968,263356,270844
1631290347790,39990,263315,270882
1631290347800,40017,263328,270870
1631290347810,40032,263345,270914
1631290347820,40054,263403,270868
1631290347830,40082,263406,270925
1631290347840,40103,263427,270960
1631290347850,40116,263414,270943
1631290347860,40134,263417,270952
1631290347870,40132,263386,270970
1631290347880,40130,263359,270982
1631290347890,40114,263338,270967
1631290347900,40079,263327,270901
1631290347910,40057,263279,270941
1631290347920,40025,263255,270923
1631290347930,39996,263240,270911
1631290347940,39969,263216,270891
1631290347950,39951,263172,270915
1631290347960,39919,263168,270900
1631290347970,39902,263176,270911
1631290347980,39870,263168,270889
1631290347990,39864,263147,270898
1631290348000,39854,263108,270896
1631290348010,39829,263108,270914
1631290348020,39825,263127,270862
1631290348030,39799,263130,270887
1631290348040,39801,263099,270880
1631290348050,39788,263120,270862
1631290348060,39777,263064,270909
1631290348070,39772,263054,270863
1631290348080,39772,263065,270883
1631290348090,39778,263050,270911
1631290348100,39775,263069,270871
1631290348110,39791,263056,270893
1631290348120,39785,263098,270885
1631290348130,39783,263099,270884
1631290348140,39780,263056,270847
1631290348150,39771,263068,270855
1631290348160,39764,263079,270857
1631290348170,39773,263065,270886
1631290348180,39757,263040,270848
1631290348190,39762,263056,270827
1631290348200,39762,263073,270844
1631290348210,39764,263068,270853
1631290348220,39761,263044,270833
1631290348230,39764,263066,270872
1631290348240,39761,263043,270845
1631290348250,39769,263082,270850
1631290348260,39769,263099,270804
1631290348270,39780,263101,270856
1631290348280,39781,263094,270836
1631290348290,39790,263113,270861
1631290348300,39794,263089,270859
1631290348310,39815,263095,270869
1631290348320,39827,263073,270838
1631290348330,39835,263143,270864
1631290348340,39849,263132,270872
1631290348350,39876,263156,270874
1631290348360,39887,263148,270863
1631290348370,39879,263160,270862
1631290348380,39882,263153,270917
1631290348390,39909,263173,270887
1631290348400,39913,263178,270903
1631290348410,39936,263238,270907
1631290348420,39946,263218,270909
1631290348430,39964,263206,270903
1631290348440,39978,263234,270893
1631290348450,39998,263264,270894
1631290348460,40025,263225,270903
1631290348470,40023,263300,270933
1631290348480,40048,263286,270918
1631290348490,40056,263290,270919
1631290348500,40072,263311,270949
1631290348510,40093,263281,270900
1631290348520,40113,263348,270912
1631290348530,40136,263352,270941
1631290348540,40144,263333,270969
1631290348550,40176,263401,270987
1631290348560,40185,263402,270980
1631290348570,40203,263381,270994
1631290348580,40225,263456,270991
1631290348590,40243,263423,271008
1631290348600,40265,263419,271005
1631290348610,40278,263418,271024
1631290348620,40272,263425,271061
1631290348630,40273,263399,271010
1631290348640,40264,263368,271002
1631290348650,40236,263380,270985
1631290348660,40221,263329,270990
1631290348670,40186,263313,270988
1631290348680,40158,263295,270951
1631290348690,40126,263226,270976
1631290348700,40108,263249,270943
1631290348710,40074,263207,270951
1631290348720,40055,263177,270960
1631290348730,40032,263198,270936
1631290348740,40011,263141,270932
1631290348750,39989,263133,270914
1631290348760,39981,263131,270905
1631290348770,39967,263135,270928
1631290348780,39951,263130,270900
1631290348790,39936,263133,270893
1631290348800,39923,263086,270891
1631290348810,39918,263096,270880
1631290348820,39919,263142,270923
1631290348830,39903,263119,270884
1631290348840,39906,263111,270883
1631290348850,39900,263103,270894
1631290348860,39907,263165,270883
1631290348870,39907,263111,270850
1631290348880,39905,263105,270899
1631290348890,39904,263104,270848
1631290348900,39906,263106,270847
1631290348910,39909,263107,270873
1631290348920,39905,263151,270916
1631290348930,39898,263085,270857
1631290348940,39900,263116,270859
1631290348950,39900,263132,270894
1631290348960,39894,263071,270899
1631290348970,39898,263112,270850
1631290348980,39901,263131,270857
1631290348990,39900,263101,270872
1631290349000,39904,263072,270895
1631290349010,39917,263083,270870
1631290349020,39925,263129,270871
1631290349030,39928,263151,270894
1631290349040,39934,263139,270851
1631290349050,39941,263129,270882
1631290349060,39954,263143,270892
1631290349070,39963,263125,270888
1631290349080,39961,263145,270884
1631290349090,39977,263174,270883
1631290349100,39980,263172,270896
1631290349110,39995,263168,270843
1631290349120,40008,263173,270913
1631290349130,40025,263182,270898
1631290349140,40047,263218,270914
1631290349150,40053,263218,270894
1631290349160,40066,263215,270927
1631290349170,40069,263249,270924
1631290349180,40090,263239,270921
1631290349190,40095,263251,270928
1631290349200,40104,263280,270914
1631290349210,40116,263281,270939
1631290349220,40133,263277,270903
1631290349230,40150,263315,270931
1631290349240,40165,263295,270940
1631290349250,40184,263329,270946
1631290349260,40201,263349,270937
1631290349270,40209,263369,270988
1631290349280,40237,263334,270939
1631290349290,40248,263389,270960
1631290349300,40276,263359,270971
1631290349310,40280,263402,271017
1631290349320,40302,263415,270994
1631290349330,40327,263472,270995
1631290349340,40344,263442,271000
1631290349350,40359,263481,271055
1631290349360,40381,263467,271040
1631290349370,40391,263523,271025
1631290349380,40416,263493,271037
1631290349390,40423,263495,271038
1631290349400,40440,263475,271082
1631290349410,40455,263491,271056
1631290349420,40460,263428,271027
1631290349430,40440,263459,271063
1631290349440,40424,263438,271023
1631290349450,40395,263415,270989
1631290349460,40358,263348,271025
1631290349470,40324,263301,270978
1631290349480,40290,263309,270927
1631290349490,40259,263268,270954
1631290349500,40219,263261,270901
1631290349510,40179,263214,270918
1631290349520,40155,263230,270928
1631290349530,40137,263195,270900
1631290349540,40101,263180,270946
1631290349550,40070,263133,270910
1631290349560,40045,263147,270885
1631290349570,40025,263132,270881
1631290349580,40002,263109,270882
1631290349590,39980,263073,270881
1631290349600,39962,263066,270895
1631290349610,39948,263081,270864
1631290349620,39919,263048,270885
1631290349630,39910,263058,270827
1631290349640,39904,263035,270853
1631290349650,39890,263016,270846
1631290349660,39898,263058,270832
1631290349670,39883,262998,270829
1631290349680,39876,263036,270812
1631290349690,39866,263001,270822
1631290349700,39873,263060,270840
1631290349710,39859,263043,270783
1631290349720,39841,263015,270813
1631290349730,39842,262973,270807
1631290349740,39834,263009,270805
1631290349750,39821,263005,270817
1631290349760,39819,263020,270798
1631290349770,39819,262970,270834
1631290349780,39810,262987,270805
1631290349790,39813,262994,270781
1631290349800,39806,262977,270780
1631290349810,39802,263024,270773
1631290349820,39817,262924,270799
1631290349830,39803,262994,270772
1631290349840,39820,263024,270788
1631290349850,39814,263022,270788
1631290349860,39815,263032,270803
1631290349870,39822,262999,270782
1631290349880,39836,262978,270809
1631290349890,39841,263018,270792
1631290349900,39847,263007,270785
1631290349910,39861,263012,270789
1631290349920,39868,263056,270778
1631290349930,39883,263044,270788
1631290349940,39892,263035,270814
1631290349950,39900,263016,270843
1631290349960,39897,263068,270790
1631290349970,39924,263067,270811
1631290349980,39931,263080,270801
1631290349990,39940,263107,270778
1631290350000,39953,263092,270828
1631290350010,39962,263131,270808
1631290350020,39980,263114,270823
1631290350030,39993,263133,270848
1631290350040,40007,263154,270853
1631290350050,40017,263144,270828
1631290350060,40030,263156,270853
1631290350070,40048,263173,270843
1631290350080,40064,263143,270868
1631290350090,40067,263205,270868
1631290350100,40088,263188,270882
1631290350110,40112,263243,270871
1631290350120,40132,263228,270855
1631290350130,40130,263267,270875
1631290350140,40168,263264,270919
1631290350150,40173,263265,270883
1631290350160,40200,263296,270907
1631290350170,40205,263313,270898
1631290350180,40228,263316,270923
1631290350190,40234,263301,270920
1631290350200,40242,263328,270940
1631290350210,40237,263263,270944
1631290350220,40229,263237,270926
1631290350230,40199,263231,270929
1631290350240,40166,263182,270925
1631290350250,40129,263167,270904
1631290350260,40090,263111,270915
1631290350270,40051,263106,270879
1631290350280,40014,263067,270845
1631290350290,39979,263005,270820
1631290350300,39929,263008,270795
1631290350310,39903,263014,270792
1631290350320,39866,262975,270774
1631290350330,39838,262948,270764
1631290350340,39798,262902,270751
1631290350350,39771,262895,270761
1631290350360,39750,262879,270745
1631290350370,39723,262891,270749
1631290350380,39698,262806,270746
1631290350390,39679,262860,270743
1631290350400,39653,262805,270718
1631290350410,39644,262805,270676
1631290350420,39622,262799,270711
1631290350430,39610,262803,270691
1631290350440,39601,262810,270701
1631290350450,39603,262772,270678
1631290350460,39578,262823,270679
1631290350470,39570,262795,270658
1631290350480,39577,262775,270665
1631290350490,39560,262756,270639
1631290350500,39542,262720,270647
1631290350510,39538,262746,270660
1631290350520,39525,262748,270622
1631290350530,39520,262715,270680
1631290350540,39511,262692,270636
1631290350550,39506,262647,270634
1631290350560,39506,262683,270615
1631290350570,39498,262694,270638
1631290350580,39497,262713,270632
1631290350590,39494,262687,270657
1631290350600,39487,262740,270618
1631290350610,39491,262738,270607
1631290350620,39496,262719,270600
1631290350630,39494,262694,270610
1631290350640,39493,262717,270611
1631290350650,39505,262716,270617
1631290350660,39508,262736,270630
1631290350670,39512,262724,270638
1631290350680,39520,262747,270642
1631290350690,39526,262741,270633
1631290350700,39527,262745,270628
1631290350710,39542,262762,270639
1631290350720,39556,262791,270668
1631290350730,39567,262786,270658
1631290350740,39567,262785,270666
1631290350750,39583,262791,270656
1631290350760,39585,262796,270664
1631290350770,39603,262814,270691
1631290350780,39620,262827,270714
1631290350790,39626,262811,270708
1631290350800,39639,262846,270700
1631290350810,39660,262833,270694
1631290350820,39668,262875,270687
1631290350830,39685,262852,270730
1631290350840,39696,262803,270707
1631290350850,39702,262871,270743
1631290350860,39712,262864,270710
1631290350870,39738,262917,270733
1631290350880,39752,262903,270715
1631290350890,39762,262930,270770
1631290350900,39791,262981,270727
1631290350910,39800,262958,270745
1631290350920,39812,262960,270785
1631290350930,39830,262990,270779
1631290350940,39846,263004,270763
1631290350950,39866,262986,270792
1631290350960,39881,263062,270786
1631290350970,39896,263037,270792
1631290350980,39912,263060,270831
1631290350990,39922,263038,270849
1631290351000,39941,263037,270814
1631290351010,39938,263021,270791
1631290351020,39934,263025,270829
1631290351030,39915,263010,270803
1631290351040,39885,262979,270774
1631290351050,39851,262929,270813
1631290351060,39813,262908,270782
1631290351070,39772,262888,270777
1631290351080,39727,262844,270742
1631290351090,39692,262820,270715
1631290351100,39656,262778,270719
1631290351110,39625,262771,270726
1631290351120,39585,262756,270730
1631290351130,39551,262730,270671
1631290351140,39532,262715,270675
1631290351150,39502,262674,270649
1631290351160,39476,262684,270679
1631290351170,39451,262629,270672
1631290351180,39426,262651,270654
1631290351190,39408,262630,270647
1631290351200,39386,262602,270641
1631290351210,39371,262604,270632
1631290351220,39355,262591,270648
1631290351230,39354,262596,270605
1631290351240,39343,262605,270614
1631290351250,39340,262575,270600
1631290351260,39344,262565,270586
1631290351270,39324,262603,270615
1631290351280,39321,262589,270601
1631290351290,39307,262588,270614
1631290351300,39299,262533,270598
1631290351310,39294,262520,270591
1631290351320,39291,262542,270607
1631290351330,39274,262516,270558
1631290351340,39270,262512,270601
1631290351350,39271,262508,270575
1631290351360,39263,262538,270554
1631290351370,39257,262528,270568
1631290351380,39247,262516,270586
1631290351390,39253,262519,270601
1631290351400,39244,262530,270611
1631290351410,39246,262549,270580
1631290351420,39252,262534,270614
1631290351430,39254,262493,270592
1631290351440,39258,262520,270589
1631290351450,39271,262536,270608
1631290351460,39277,262546,270596
1631290351470,39275,262592,270612
1631290351480,39292,262568,270606
1631290351490,39295,262579,270618
1631290351500,39307,262554,270594
1631290351510,39316,262572,270608
1631290351520,39318,262571,270607
1631290351530,39340,262556,270600
1631290351540,39347,262592,270614
1631290351550,39355,262604,270638
1631290351560,39369,262619,270649
1631290351570,39378,262624,270643
1631290351580,39395,262631,270657
1631290351590,39399,262663,270633
1631290351600,39421,262684,270657
1631290351610,39433,262668,270660
1631290351620,39439,262645,270667
1631290351630,39458,262686,270651
1631290351640,39468,262700,270664
1631290351650,39489,262719,270685
1631290351660,39499,262725,270699
1631290351670,39518,262735,270704
1631290351680,39537,262761,270711
1631290351690,39557,262764,270700
1631290351700,39565,262783,270712
1631290351710,39580,262808,270758
1631290351720,39592,262800,270747
1631290351730,39617,262782,270714
1631290351740,39643,262853,270746
1631290351750,39655,262859,270764
1631290351760,39663,262865,270772
1631290351770,39686,262872,270758
1631290351780,39703,262851,270774
1631290351790,39732,262887,270813
1631290351800,39737,262921,270839
1631290351810,39746,262886,270801
1631290351820,39740,262897,270834
1631290351830,39727,262876,270801
1631290351840,39703,262815,270802
1631290351850,39682,262786,270769
1631290351860,39636,262748,270769
1631290351870,39605,262741,270760
1631290351880,39573,262726,270739
1631290351890,39534,262708,270728
1631290351900,39502,262684,270718
1631290351910,39477,262644,270723
1631290351920,39455,262590,270717
1631290351930,39435,262607,270711
1631290351940,39409,262581,270710
1631290351950,39378,262601,270694
1631290351960,39361,262554,270669
1631290351970,39347,262570,270724
1631290351980,39340,262572,270706
1631290351990,39325,262563,270690
1631290352000,39309,262548,270688
1631290352010,39305,262553,270670
1631290352020,39302,262566,270644
1631290352030,39302,262539,270699
1631290352040,39303,262561,270659
1631290352050,39301,262554,270676
1631290352060,39302,262516,270675
1631290352070,39308,262551,270699
1631290352080,39302,262544,270665
1631290352090,39299,262534,270704
1631290352100,39280,262496,270696
1631290352110,39285,262583,270644
1631290352120,39279,262521,270655
1631290352130,39276,262519,270640
1631290352140,39261,262494,270632
1631290352150,39258,262516,270653
1631290352160,39258,262496,270677
1631290352170,39262,262556,270683
1631290352180,39260,262515,270646
1631290352190,39262,262534,270643
1631290352200,39264,262488,270675
1631290352210,39272,262520,270671
1631290352220,39265,262508,270665
1631290352230,39279,262553,270688
1631290352240,39292,262542,270676
1631290352250,39294,262527,270647
1631290352260,39293,262534,270697
1631290352270,39306,262541,270702
1631290352280,39315,262577,270683
1631290352290,39330,262575,270699
1631290352300,39335,262594,270673
1631290352310,39344,262564,270746
1631290352320,39361,262569,270725
1631290352330,39372,262598,270747
1631290352340,39387,262631,270719
1631290352350,39395,262619,270717
1631290352360,39412,262608,270739
1631290352370,39423,262648,270730
1631290352380,39433,262645,270748
1631290352390,39452,262683,270778
1631290352400,39456,262653,270769
1631290352410,39486,262700,270784
1631290352420,39485,262738,270769
1631290352430,39506,262727,270787
1631290352440,39518,262733,270793
1631290352450,39526,262753,270769
1631290352460,39554,262774,270801
1631290352470,39569,262759,270789
1631290352480,39580,262776,270837
1631290352490,39585,262810,270814
1631290352500,39613,262800,270806
1631290352510,39638,262832,270835
1631290352520,39654,262862,270864
1631290352530,39674,262818,270864
1631290352540,39694,262852,270877
1631290352550,39716,262894,270873
1631290352560,39723,262904,270896
1631290352570,39747,262889,270905
1631290352580,39766,262899,270894
1631290352590,39796,262955,270946
1631290352600,39803,262921,270943
1631290352610,39804,262911,270923
1631290352620,39803,262976,270926
1631290352630,39790,262898,270934
1631290352640,39766,262869,270923
1631290352650,39746,262887,270921
1631290352660,39707,262809,270906
1631290352670,39669,262761,270865
1631290352680,39636,262733,270875
1631290352690,39603,262729,270849
1631290352700,39572,262708,270807
1631290352710,39543,262706,270817
1631290352720,39526,262668,270821
1631290352730,39515,262703,270832
1631290352740,39489,262627,270798
1631290352750,39476,262661,270799
1631290352760,39459,262636,270791
1631290352770,39451,262640,270788
1631290352780,39448,262654,270829
1631290352790,39437,262627,270798
1631290352800,39435,262610,270786
1631290352810,39431,262691,270785
1631290352820,39426,262652,270764
1631290352830,39428,262651,270795
1631290352840,39433,262657,270807
1631290352850,39433,262587,270805
1631290352860,39432,262664,270767
1631290352870,39432,262646,270786
1631290352880,39426,262640,270796
1631290352890,39426,262641,270792
1631290352900,39430,262631,270761
1631290352910,39432,262638,270772
1631290352920,39428,262651,270800
1631290352930,39423,262629,270824
1631290352940,39426,262622,270846
1631290352950,39410,262628,270814
1631290352960,39413,262646,270833
1631290352970,39416,262633,270836
1631290352980,39424,262645,270815
1631290352990,39426,262663,270856
1631290353000,39428,262650,270861
1631290353010,39439,262632,270854
1631290353020,39437,262642,270840
1631290353030,39443,262655,270875
1631290353040,39450,262616,270875
1631290353050,39459,262664,270884
1631290353060,39471,262658,270875
1631290353070,39475,262689,270914
1631290353080,39490,262656,270915
1631290353090,39494,262696,270896
1631290353100,39504,262710,270922
1631290353110,39519,262735,270909
1631290353120,39525,262756,270963
1631290353130,39542,262760,270929
1631290353140,39551,262753,270936
1631290353150,39565,262755,270923
1631290353160,39576,262758,270927
1631290353170,39588,262772,270925
1631290353180,39587,262753,270924
1631290353190,39605,262779,270931
1631290353200,39620,262822,270959
1631290353210,39633,262826,270931
1631290353220,39639,262839,270942
1631290353230,39660,262822,270939
1631290353240,39656,262866,270927
1631290353250,39678,262839,270946
1631290353260,39690,262877,270935
1631290353270,39709,262904,270971
1631290353280,39731,262900,270970
1631290353290,39751,262893,270994
1631290353300,39770,262902,270978
1631290353310,39782,262938,271013
1631290353320,39809,262939,271021
1631290353330,39828,262990,271049
1631290353340,39842,262973,271029
1631290353350,39864,263023,271051
1631290353360,39876,262994,271038
1631290353370,39886,263032,271004
1631290353380,39910,263041,271045
1631290353390,39908,263006,271074
1631290353400,39900,262985,271035
1631290353410,39890,262990,271011
1631290353420,39868,262984,271006
1631290353430,39839,262906,271009
1631290353440,39796,262860,271018
1631290353450,39761,262852,270976
1631290353460,39714,262854,270980
1631290353470,39676,262798,270952
1631290353480,39629,262774,270931
1631290353490,39593,262723,270936
1631290353500,39549,262710,270907
1631290353510,39520,262711,270896
1631290353520,39476,262664,270898
1631290353530,39451,262654,270834
1631290353540,39415,262644,270832
1631290353550,39385,262617,270843
1631290353560,39379,262596,270802
1631290353570,39350,262585,270838
1631290353580,39331,262566,270802
1631290353590,39309,262551,270832
1631290353600,39290,262546,270789
1631290353610,39271,262570,270807
1631290353620,39261,262578,270812
1631290353630,39248,262557,270794
1631290353640,39242,262549,270812
1631290353650,39235,262531,270794
1631290353660,39233,262545,270751
1631290353670,39219,262539,270761
1631290353680,39203,262549,270750
1631290353690,39207,262531,270684
1631290353700,39182,262473,270707
1631290353710,39165,262485,270715
1631290353720,39158,262480,270651
1631290353730,39159,262526,270668
1631290353740,39136,262482,270693
1631290353750,39141,262456,270676
1631290353760,39138,262502,270636
1631290353770,39134,262519,270637
1631290353780,39135,262511,270652
1631290353790,39143,262480,270698
1631290353800,39156,262528,270674
1631290353810,39158,262500,270668
1631290353820,39167,262531,270712
1631290353830,39173,262562,270713
1631290353840,39183,262521,270700
1631290353850,39191,262543,270698
1631290353860,39202,262554,270703
1631290353870,39205,262551,270719
1631290353880,39229,262600,270738
1631290353890,39229,262574,270734
1631290353900,39244,262562,270761
1631290353910,39256,262603,270756
1631290353920,39270,262616,270794
1631290353930,39291,262626,270752
1631290353940,39313,262657,270806
1631290353950,39332,262639,270835
1631290353960,39343,262628,270828
1631290353970,39361,262679,270854
1631290353980,39377,262705,270835
1631290353990,39397,262687,270851
1631290354000,39414,262722,270901
1631290354010,39435,262715,270892
1631290354020,39442,262763,270919
1631290354030,39465,262756,270894
1631290354040,39483,262718,270934
1631290354050,39496,262768,270930
1631290354060,39510,262773,270941
1631290354070,39518,262795,270934
1631290354080,39538,262804,270948
1631290354090,39543,262809,270938
1631290354100,39564,262869,270958
1631290354110,39587,262848,270980
1631290354120,39606,262846,270934
1631290354130,39622,262878,271003
1631290354140,39647,262857,271023
1631290354150,39674,262875,271004
1631290354160,39686,262917,271032
1631290354170,39698,262922,271014
1631290354180,39725,262968,271028
1631290354190,39731,262989,271062
1631290354200,39766,262977,271064
1631290354210,39770,262951,271017
1631290354220,39770,262934,271049
1631290354230,39755,262909,271049
1631290354240,39727,262887,271052
1631290354250,39695,262843,270989
1631290354260,39646,262790,271008
1631290354270,39588,262780,271004
1631290354280,39536,262713,270968
1631290354290,39494,262686,270932
1631290354300,39439,262652,270943
1631290354310,39396,262614,270910
1631290354320,39357,262566,270897
1631290354330,39317,262558,270881
1631290354340,39258,262555,270886
1631290354350,39228,262493,270870
1631290354360,39179,262476,270856
1631290354370,39161,262443,270841
1631290354380,39119,262470,270850
1631290354390,39082,262406,270828
1631290354400,39049,262403,270829
1631290354410,39019,262342,270816
1631290354420,38987,262327,270820
1631290354430,38966,262336,270795
1631290354440,38941,262296,270768
1631290354450,38917,262304,270787
1631290354460,38897,262309,270764
1631290354470,38894,262231,270780
1631290354480,38872,262281,270784
1631290354490,38864,262255,270782
1631290354500,38861,262236,270750
1631290354510,38845,262226,270759
1631290354520,38829,262197,270738
1631290354530,38810,262197,270740
1631290354540,38807,262226,270710
1631290354550,38790,262177,270740
1631290354560,38770,262169,270705
1631290354570,38760,262171,270686
1631290354580,38747,262179,270696
1631290354590,38744,262154,270715
1631290354600,38736,262158,270711
1631290354610,38742,262160,270705
1631290354620,38728,262170,270725
1631290354630,38725,262172,270687
1631290354640,38727,262170,270727
1631290354650,38725,262145,270696
1631290354660,38733,262125,270700
1631290354670,38726,262171,270670
1631290354680,38744,262160,270717
1631290354690,38743,262176,270686
1631290354700,38760,262173,270699
1631290354710,38755,262162,270722
1631290354720,38764,262167,270697
1631290354730,38776,262204,270704
1631290354740,38780,262221,270721
1631290354750,38790,262212,270713
1631290354760,38803,262214,270704
1631290354770,38805,262184,270761
1631290354780,38820,262229,270720
1631290354790,38830,262236,270747
1631290354800,38852,262225,270728
1631290354810,38864,262263,270771
1631290354820,38869,262291,270736
1631290354830,38881,262255,270756
1631290354840,38902,262274,270796
1631290354850,38903,262280,270769
1631290354860,38929,262289,270800
1631290354870,38945,262298,270764
1631290354880,38953,262334,270779
1631290354890,38964,262346,270803
1631290354900,38984,262357,270805
1631290354910,38999,262363,270780
1631290354920,39021,262365,270825
1631290354930,39029,262411,270817
1631290354940,39048,262402,270827
1631290354950,39071,262417,270840
1631290354960,39085,262439,270845
1631290354970,39102,262429,270843
1631290354980,39119,262468,270844
1631290354990,39159,262481,270876
1631290355000,39172,262511,270890
1631290355010,39176,262523,270880
1631290355020,39199,262490,270884
1631290355030,39218,262539,270888
1631290355040,39237,262577,270909
1631290355050,39256,262511,270947
1631290355060,39246,262514,270934
1631290355070,39231,262491,270913
1631290355080,39207,262495,270888
1631290355090,39165,262425,270893
1631290355100,39127,262398,270884
1631290355110,39078,262319,270822
1631290355120,39024,262307,270799
1631290355130,38972,262297,270807
1631290355140,38925,262214,270774
1631290355150,38891,262213,270765
1631290355160,38847,262181,270778
1631290355170,38800,262123,270705
1631290355180,38762,262114,270728
1631290355190,38725,262094,270686
1631290355200,38684,262116,270688
1631290355210,38653,262043,270687
1631290355220,38624,262005,270666
1631290355230,38586,262031,270654
1631290355240,38558,261961,270651
1631290355250,38526,261950,270653
1631290355260,38501,261926,270635
1631290355270,38477,261925,270642
1631290355280,38455,261940,270629
1631290355290,38438,261919,270607
1631290355300,38433,261916,270649
1631290355310,38422,261890,270632
1631290355320,38407,261873,270601
1631290355330,38398,261836,270626
1631290355340,38391,261858,270626
1631290355350,38392,261909,270628
1631290355360,38380,261863,270599
1631290355370,38362,261821,270626
1631290355380,38360,261824,270588
1631290355390,38349,261848,270594
1631290355400,38333,261826,270609
1631290355410,38339,261777,270612
1631290355420,38325,261829,270581
1631290355430,38325,261803,270625
1631290355440,38321,261799,270556
1631290355450,38311,261794,270607
1631290355460,38316,261842,270600
1631290355470,38317,261774,270622
1631290355480,38325,261796,270590
1631290355490,38335,261817,270629
1631290355500,38328,261834,270623
1631290355510,38325,261837,270629
1631290355520,38341,261861,270644
1631290355530,38343,261834,270570
1631290355540,38344,261844,270615
1631290355550,38354,261865,270614
1631290355560,38358,261867,270631
1631290355570,38372,261863,270645
1631290355580,38380,261879,270619
1631290355590,38401,261892,270632
1631290355600,38409,261939,270660
1631290355610,38420,261913,270665
1631290355620,38430,261894,270659
1631290355630,38457,261938,270647
1631290355640,38472,261954,270661
1631290355650,38482,261985,270686
1631290355660,38494,261979,270711
1631290355670,38528,262016,270682
1631290355680,38539,261983,270702
1631290355690,38548,262010,270719
1631290355700,38564,262034,270710
1631290355710,38589,262052,270759
1631290355720,38609,262053,270753
1631290355730,38629,262089,270746
1631290355740,38646,262065,270764
1631290355750,38671,262069,270784
1631290355760,38683,262093,270784
1631290355770,38705,262135,270802
1631290355780,38721,262162,270810
1631290355790,38746,262180,270818
1631290355800,38764,262176,270833
1631290355810,38788,262160,270850
1631290355820,38806,262202,270844
1631290355830,38823,262254,270871
1631290355840,38858,262255,270904
1631290355850,38868,262259,270899
1631290355860,38888,262232,270890
1631290355870,38920,262338,270908
1631290355880,38942,262341,270932
1631290355890,38964,262341,270942
1631290355900,38984,262370,270924
1631290355910,39008,262384,270970
1631290355920,39022,262374,270990
1631290355930,39032,262415,271015
1631290355940,39038,262381,271009
1631290355950,39021,262305,270997
1631290355960,39003,262318,270978
1631290355970,38972,262273,270992
1631290355980,38917,262235,270948
1631290355990,38874,262202,270910
1631290356000,38833,262152,270896
1631290356010,38774,262166,270894
1631290356020,38723,262082,270908
1631290356030,38686,262078,270882
1631290356040,38648,262028,270857
1631290356050,38604,262003,270838
1631290356060,38564,261978,270840
1631290356070,38534,261965,270825
1631290356080,38504,261931,270843
1631290356090,38470,261935,270798
1631290356100,38449,261865,270772
1631290356110,38418,261873,270772
1631290356120,38385,261848,270770
1631290356130,38376,261807,270777
1631290356140,38338,261837,270769
1631290356150,38342,261820,270750
1631290356160,38305,261848,270743
1631290356170,38299,261810,270748
1631290356180,38291,261797,270754
1631290356190,38287,261800,270732
1631290356200,38284,261797,270737
1631290356210,38272,261777,270733
1631290356220,38255,261766,270732
1631290356230,38258,261810,270734
1631290356240,38252,261758,270733
1631290356250,38248,261768,270714
1631290356260,38236,261741,270703
1631290356270,38232,261753,270740
1631290356280,38231,261759,270694
1631290356290,38224,261727,270735
1631290356300,38229,261715,270701
1631290356310,38208,261759,270717
1631290356320,38214,261742,270719
1631290356330,38213,261744,270753
1631290356340,38215,261737,270721
1631290356350,38219,261757,270703
1631290356360,38217,261741,270723
1631290356370,38229,261765,270728
1631290356380,38236,261758,270700
1631290356390,38250,261743,270746
1631290356400,38259,261775,270752
1631290356410,38263,261764,270715
1631290356420,38277,261782,270738
1631290356430,38282,261775,270729
1631290356440,38289,261810,270774
1631290356450,38308,261829,270755
1631290356460,38323,261824,270762
1631290356470,38334,261837,270781
1631290356480,38340,261827,270752
1631290356490,38365,261858,270810
1631290356500,38379,261834,270796
1631290356510,38384,261920,270819
1631290356520,38403,261868,270807
1631290356530,38417,261907,270814
1631290356540,38442,261889,270761
1631290356550,38451,261918,270841
1631290356560,38469,261942,270771
1631290356570,38485,261963,270808
1631290356580,38495,261989,270830
1631290356590,38511,261956,270871
1631290356600,38528,261971,270839
1631290356610,38557,262021,270873
1631290356620,38565,262021,270868
1631290356630,38591,262052,270874
1631290356640,38599,262099,270876
1631290356650,38632,262106,270896
1631290356660,38653,262129,270894
1631290356670,38668,262120,270929
1631290356680,38695,262147,270932
1631290356690,38720,262198,270959
1631290356700,38745,262164,270942
1631290356710,38773,262222,270964
1631290356720,38795,262242,270971
1631290356730,38812,262259,271021
1631290356740,38839,262255,271003
1631290356750,38863,262251,271049
1631290356760,38889,262296,271036
1631290356770,38916,262291,271073
1631290356780,38943,262352,271089
1631290356790,38965,262384,271085
1631290356800,38986,262393,271133
1631290356810,39019,262349,271124
1631290356820,39033,262417,271148
1631290356830,39053,262441,271178
1631290356840,39069,262438,271138
1631290356850,39062,262423,271163
1631290356860,39042,262372,271157
1631290356870,39015,262337,271139
1631290356880,38987,262335,271164
1631290356890,38938,262271,271114
1631290356900,38893,262283,271122
1631290356910,38857,262213,271099
1631290356920,38810,262168,271112
1631290356930,38779,262168,271082
1631290356940,38735,262120,271116
1631290356950,38705,262148,271078
1631290356960,38671,262077,271062
1631290356970,38640,262073,271069
1631290356980,38616,262041,271072
1631290356990,38594,262055,271020
1631290357000,38570,262024,271040
1631290357010,38545,261963,271019
1631290357020,38522,261999,271010
1631290357030,38509,262009,271008
1631290357040,38498,261946,271024
1631290357050,38484,261976,271014
1631290357060,38472,261969,271022
1631290357070,38463,261955,270989
1631290357080,38464,261985,271018
1631290357090,38458,261944,270979
1631290357100,38468,261958,271010
1631290357110,38453,262011,271000
1631290357120,38449,261951,271019
1631290357130,38446,261933,270987
1631290357140,38432,261962,270990
1631290357150,38437,261952,270990
1631290357160,38432,261955,270981
1631290357170,38423,261908,270985
1631290357180,38423,261916,271011
1631290357190,38423,261933,270985
1631290357200,38419,261904,270991
1631290357210,38417,261921,270992
1631290357220,38427,261912,270981
1631290357230,38421,261933,271014
1631290357240,38422,261938,270993
1631290357250,38431,261940,270999
1631290357260,38441,261975,271034
1631290357270,38450,261976,271028
1631290357280,38450,261945,271029
1631290357290,38477,261949,271012
1631290357300,38481,261970,271034
1631290357310,38488,262004,271025
1631290357320,38507,261992,271050
1631290357330,38511,262000,271092
1631290357340,38524,262017,271048
1631290357350,38540,262047,271101
1631290357360,38565,262040,271076
1631290357370,38565,262025,271083
1631290357380,38583,262071,271056
1631290357390,38603,262053,271107
1631290357400,38615,262057,271123
1631290357410,38627,262091,271139
1631290357420,38654,262109,271143
1631290357430,38672,262137,271136
1631290357440,38683,262128,271126
1631290357450,38703,262109,271149
1631290357460,38710,262134,271153
1631290357470,38727,262175,271178
1631290357480,38738,262154,271148
1631290357490,38760,262184,271174
1631290357500,38781,262228,271192
1631290357510,38802,262182,271181
1631290357520,38817,262244,271195
1631290357530,38841,262220,271219
1631290357540,38858,262298,271209
1631290357550,38878,262253,271232
1631290357560,38897,262339,271249
1631290357570,38919,262330,271249
1631290357580,38940,262307,271294
1631290357590,38956,262327,271283
1631290357600,38975,262334,271301
1631290357610,38994,262388,271299
1631290357620,39029,262401,271288
1631290357630,39047,262402,271329
1631290357640,39066,262438,271319
1631290357650,39092,262432,271306
1631290357660,39109,262454,271338
1631290357670,39141,262462,271343
1631290357680,39161,262513,271361
1631290357690,39189,262518,271362
1631290357700,39219,262524,271379
1631290357710,39244,262568,271416
1631290357720,39263,262616,271428
1631290357730,39278,262587,271417
1631290357740,39284,262583,271448
1631290357750,39276,262531,271401
1631290357760,39267,262524,271402
1631290357770,39238,262498,271412
1631290357780,39214,262475,271406
1631290357790,39185,262448,271385
1631290357800,39141,262417,271372
1631290357810,39099,262392,271391
1631290357820,39065,262354,271359
1631290357830,39040,262316,271367
1631290357840,39005,262368,271373
1631290357850,38993,262307,271349
1631290357860,38966,262302,271349
1631290357870,38950,262300,271340
1631290357880,38936,262292,271319
1631290357890,38911,262283,271318
1631290357900,38904,262261,271319
1631290357910,38899,262284,271336
1631290357920,38883,262229,271341
1631290357930,38875,262223,271279
1631290357940,38864,262258,271281
1631290357950,38867,262234,271295
1631290357960,38871,262263,271305
1631290357970,38872,262254,271322
1631290357980,38875,262287,271294
1631290357990,38884,262264,271289
1631290358000,38870,262255,271306
1631290358010,38884,262226,271324
1631290358020,38881,262238,271301
1631290358030,38880,262231,271331
1631290358040,38876,262232,271302
1631290358050,38879,262260,271289
1631290358060,38869,262259,271312
1631290358070,38874,262268,271304
1631290358080,38872,262249,271320
1631290358090,38863,262226,271317
1631290358100,38870,262254,271281
1631290358110,38874,262216,271293
1631290358120,38866,262288,271336
1631290358130,38870,262247,271315
1631290358140,38879,262236,271297
1631290358150,38882,262250,271327
1631290358160,38906,262275,271325
1631290358170,38909,262255,271340
1631290358180,38923,262293,271330
1631290358190,38932,262332,271324
1631290358200,38946,262326,271312
1631290358210,38956,262313,271301
1631290358220,38964,262312,271333
1631290358230,38987,262341,271363
1631290358240,39001,262312,271370
1631290358250,39021,262379,271355
1631290358260,39039,262397,271358
1631290358270,39039,262378,271368
1631290358280,39059,262397,271376
1631290358290,39074,262383,271355
1631290358300,39091,262441,271418
1631290358310,39116,262464,271438
1631290358320,39133,262422,271412
1631290358330,39144,262458,271454
1631290358340,39167,262483,271438
1631290358350,39179,262484,271412
1631290358360,39199,262532,271413
1631290358370,39207,262525,271453
1631290358380,39226,262574,271451
1631290358390,39259,262560,271468
1631290358400,39268,262542,271447
1631290358410,39298,262574,271467
1631290358420,39313,262610,271481
1631290358430,39328,262618,271497
1631290358440,39349,262617,271483
1631290358450,39364,262597,271502
1631290358460,39387,262658,271527
1631290358470,39416,262695,271513
1631290358480,39428,262691,271521
1631290358490,39460,262711,271556
1631290358500,39484,262718,271562
1631290358510,39505,262732,271571
1631290358520,39524,262736,271620
1631290358530,39555,262756,271603
1631290358540,39577,262783,271607
1631290358550,39592,262821,271625
1631290358560,39606,262818,271624
1631290358570,39638,262822,271625
1631290358580,39663,262859,271675
1631290358590,39682,262859,271631
1631290358600,39672,262831,271668
1631290358610,39667,262816,271679
1631290358620,39647,262785,271654
1631290358630,39622,262760,271655
1631290358640,39584,262763,271636
1631290358650,39555,262718,271619
1631290358660,39519,262664,271594
1631290358670,39476,262681,271613
1631290358680,39460,262663,271575
1631290358690,39430,262659,271565
1631290358700,39399,262617,271576
1631290358710,39373,262554,271533
1631290358720,39363,262641,271577
1631290358730,39356,262577,271550
1631290358740,39331,262547,271531
1631290358750,39314,262572,271524
1631290358760,39304,262560,271531
1631290358770,39301,262583,271514
1631290358780,39292,262554,271516
1631290358790,39285,262576,271524
1631290358800,39287,262567,271543
1631290358810,39296,262572,271521
1631290358820,39292,262563,271523
1631290358830,39300,262547,271537
1631290358840,39293,262565,271523
1631290358850,39292,262598,271516
1631290358860,39291,262556,271527
1631290358870,39288,262549,271528
1631290358880,39284,262551,271482
1631290358890,39300,262560,271526
1631290358900,39291,262562,271535
1631290358910,39275,262558,271556
1631290358920,39290,262555,271510
1631290358930,39273,262557,271499
1631290358940,39282,262555,271529
1631290358950,39283,262549,271495
1631290358960,39277,262540,271526
1631290358970,39286,262540,271527
1631290358980,39290,262566,271547
1631290358990,39289,262593,271499
1631290359000,39298,262554,271525
1631290359010,39311,262593,271517
1631290359020,39313,262582,271512
1631290359030,39320,262607,271550
1631290359040,39334,262590,271495
1631290359050,39349,262629,271553
1631290359060,39360,262634,271571
1631290359070,39380,262624,271536
1631290359080,39385,262649,271549
1631290359090,39392,262666,271553
1631290359100,39408,262643,271572
1631290359110,39427,262667,271582
1631290359120,39444,262681,271583
1631290359130,39462,262717,271535
1631290359140,39474,262719,271566
1631290359150,39493,262716,271566
1631290359160,39509,262710,271581
1631290359170,39516,262738,271583
1631290359180,39537,262765,271593
1631290359190,39547,262784,271572
1631290359200,39554,262798,271592
1631290359210,39579,262827,271568
1631290359220,39594,262815,271592
1631290359230,39617,262847,271615
1631290359240,39630,262854,271614
1631290359250,39659,262864,271628
1631290359260,39677,262869,271612
1631290359270,39702,262871,271621
1631290359280,39722,262938,271650
1631290359290,39745,262883,271670
1631290359300,39759,262933,271668
1631290359310,39780,262893,271639
1631290359320,39805,262983,271665
1631290359330,39828,262994,271689
1631290359340,39847,262999,271709
1631290359350,39865,263021,271705
1631290359360,39893,263021,271657
1631290359370,39905,263058,271712
1631290359380,39947,263079,271745
1631290359390,39967,263110,271704
1631290359400,39980,263113,271712
1631290359410,40003,263101,271725
1631290359420,40036,263150,271733
1631290359430,40055,263141,271760
1631290359440,40071,263146,271750
1631290359450,40073,263140,271797
1631290359460,40057,263107,271762
1631290359470,40033,263115,271774
1631290359480,40013,263071,271742
1631290359490,39969,263031,271719
1631290359500,39928,262980,271701
1631290359510,39886,262977,271688
1631290359520,39833,262902,271650
1631290359530,39807,262878,271641
1631290359540,39756,262853,271658
1631290359550,39707,262793,271661
1631290359560,39669,262801,271594
1631290359570,39626,262764,271583
1631290359580,39595,262752,271567
1631290359590,39565,262738,271561
1631290359600,39536,262709,271541
1631290359610,39513,262704,271551
1631290359620,39495,262719,271528
1631290359630,39470,262664,271532
1631290359640,39452,262700,271545
1631290359650,39426,262688,271517
1631290359660,39405,262649,271504
1631290359670,39388,262635,271508
1631290359680,39375,262612,271511
1631290359690,39366,262619,271495
1631290359700,39377,262623,271500
1631290359710,39355,262652,271484
1631290359720,39358,262653,271504
1631290359730,39359,262658,271488
1631290359740,39340,262660,271453
1631290359750,39337,262635,271481
1631290359760,39323,262612,271472
1631290359770,39312,262622,271450
1631290359780,39325,262602,271467
1631290359790,39308,262610,271477
1631290359800,39305,262611,271467
1631290359810,39298,262629,271458
1631290359820,39293,262601,271450
1631290359830,39284,262597,271449
1631290359840,39282,262589,271483
1631290359850,39295,262616,271472
1631290359860,39295,262637,271483
1631290359870,39302,262584,271437
1631290359880,39292,262644,271471
1631290359890,39310,262600,271465
1631290359900,39316,262653,271476
1631290359910,39318,262649,271458
1631290359920,39320,262645,271479
1631290359930,39334,262665,271493
1631290359940,39355,262699,271498
1631290359950,39356,262676,271463
1631290359960,39372,262668,271492
1631290359970,39383,262699,271514
1631290359980,39401,262654,271513
1631290359990,39413,262715,271519
1631290360000,39421,262734,271491
1631290360010,39427,262738,271511
1631290360020,39444,262710,271529
1631290360030,39472,262756,271528
1631290360040,39488,262790,271549
1631290360050,39508,262774,271582
1631290360060,39515,262798,271524
1631290360070,39528,262794,271558
1631290360080,39548,262803,271554
1631290360090,39559,262841,271536
1631290360100,39569,262857,271547
1631290360110,39597,262860,271552
1631290360120,39612,262856,271573
1631290360130,39632,262874,271564
1631290360140,39650,262918,271594
1631290360150,39668,262900,271604
1631290360160,39685,262919,271590
1631290360170,39708,262934,271615
1631290360180,39721,262928,271623
1631290360190,39750,262948,271611
1631290360200,39766,262957,271656
1631290360210,39789,263015,271635
1631290360220,39809,263028,271650
1631290360230,39827,263048,271644
1631290360240,39848,263047,271652
1631290360250,39871,263031,271667
1631290360260,39896,263052,271706
1631290360270,39920,263096,271677
1631290360280,39954,263099,271714
1631290360290,39967,263143,271725
1631290360300,39986,263155,271751
1631290360310,40002,263127,271742
1631290360320,40005,263134,271773
1631290360330,39991,263084,271728
1631290360340,39966,263057,271737
1631290360350,39922,263027,271698
1631290360360,39886,263004,271729
1631290360370,39832,262977,271664
1631290360380,39801,262917,271676
1631290360390,39733,262894,271651
1631290360400,39691,262856,271609
1631290360410,39637,262812,271607
1631290360420,39601,262796,271620
1631290360430,39566,262773,271549
1631290360440,39526,262764,271558
1631290360450,39481,262719,271565
1631290360460,39454,262715,271530
1631290360470,39422,262695,271543
1631290360480,39394,262666,271541
1631290360490,39367,262637,271490
1631290360500,39348,262625,271517
1631290360510,39329,262617,271466
1631290360520,39313,262557,271500
1631290360530,39284,262572,271503
1631290360540,39265,262551,271470
1631290360550,39257,262585,271503
1631290360560,39248,262518,271484
1631290360570,39250,262558,271504
1631290360580,39240,262551,271496
1631290360590,39240,262532,271487
1631290360600,39229,262511,271499
1631290360610,39222,262506,271481
1631290360620,39209,262528,271498
1631290360630,39194,262496,271464
1631290360640,39181,262473,271501
1631290360650,39167,262478,271477
1631290360660,39160,262463,271482
1631290360670,39157,262477,271457
1631290360680,39136,262432,271420
1631290360690,39128,262454,271432
1631290360700,39116,262492,271435
1631290360710,39121,262429,271434
1631290360720,39120,262458,271411
1631290360730,39120,262472,271421
1631290360740,39112,262447,271414
1631290360750,39122,262477,271438
1631290360760,39132,262493,271431
1631290360770,39133,262481,271436
1631290360780,39144,262488,271445
1631290360790,39157,262476,271446
1631290360800,39156,262491,271453
1631290360810,39166,262509,271439
1631290360820,39172,262521,271437
1631290360830,39192,262529,271449
1631290360840,39196,262527,271453
1631290360850,39205,262521,271449
1631290360860,39226,262522,271462
1631290360870,39235,262529,271468
1631290360880,39237,262539,271457
1631290360890,39253,262546,271481
1631290360900,39269,262579,271463
1631290360910,39277,262585,271478
1631290360920,39289,262605,271497
1631290360930,39309,262582,271481
1631290360940,39313,262597,271491
1631290360950,39330,262605,271505
1631290360960,39343,262652,271496
1631290360970,39362,262615,271518
1631290360980,39377,262658,271520
1631290360990,39399,262658,271511
1631290361000,39415,262685,271498
1631290361010,39432,262638,271560
1631290361020,39448,262699,271535
1631290361030,39470,262670,271554
1631290361040,39482,262692,271552
1631290361050,39499,262712,271578
1631290361060,39511,262713,271572
1631290361070,39531,262771,271626
1631290361080,39551,262766,271616
1631290361090,39568,262763,271615
1631290361100,39577,262761,271612
1631290361110,39605,262835,271623
1631290361120,39621,262821,271620
1631290361130,39638,262825,271638
1631290361140,39660,262831,271607
1631290361150,39683,262855,271642
1631290361160,39704,262823,271649
1631290361170,39726,262921,271658
1631290361180,39733,262871,271669
1631290361190,39749,262877,271702
1631290361200,39749,262866,271711
1631290361210,39743,262848,271654
1631290361220,39710,262837,271673
1631290361230,39673,262765,271641
1631290361240,39638,262768,271633
1631290361250,39585,262710,271598
1631290361260,39529,262636,271577
1631290361270,39477,262638,271558
1631290361280,39433,262596,271544
1631290361290,39393,262546,271538
1631290361300,39357,262537,271487
1631290361310,39319,262500,271506
1631290361320,39277,262489,271479
1631290361330,39241,262464,271472
1631290361340,39217,262452,271461
1631290361350,39177,262430,271473
1631290361360,39155,262434,271465
1631290361370,39127,262373,271460
1631290361380,39100,262381,271420
1631290361390,39080,262345,271449
1631290361400,39055,262317,271453
1631290361410,39036,262361,271408
1631290361420,39020,262300,271427
1631290361430,39005,262316,271405
1631290361440,39003,262335,271371
1631290361450,38988,262337,271409
1631290361460,38975,262259,271403
1631290361470,38972,262309,271373
1631290361480,38958,262300,271380
1631290361490,38955,262251,271386
1631290361500,38936,262279,271375
1631290361510,38933,262254,271376
1631290361520,38912,262229,271369
1631290361530,38904,262266,271369
1631290361540,38895,262215,271347
1631290361550,38883,262179,271357
1631290361560,38868,262207,271351
1631290361570,38875,262192,271341
1631290361580,38867,262221,271327
1631290361590,38867,262177,271336
1631290361600,38858,262203,271331
1631290361610,38861,262190,271332
1631290361620,38866,262165,271330
1631290361630,38861,262223,271335
1631290361640,38876,262170,271334
1631290361650,38878,262226,271311
1631290361660,38875,262195,271317
1631290361670,38886,262250,271324
1631290361680,38898,262245,271334
1631290361690,38897,262207,271332
1631290361700,38900,262257,271320
1631290361710,38912,262238,271364
1631290361720,38919,262247,271336
1631290361730,38928,262272,271371
1631290361740,38942,262279,271337
1631290361750,38946,262292,271343
1631290361760,38954,262292,271357
1631290361770,38974,262294,271347
1631290361780,38983,262259,271364
1631290361790,38997,262325,271360
1631290361800,39013,262282,271366
1631290361810,39027,262334,271371
1631290361820,39043,262354,271376
1631290361830,39051,262321,271381
1631290361840,39071,262332,271425
1631290361850,39077,262330,271385
1631290361860,39096,262387,271366
1631290361870,39106,262404,271402
1631290361880,39123,262401,271406
1631290361890,39130,262400,271390
1631290361900,39159,262403,271432
1631290361910,39170,262460,271456
1631290361920,39195,262440,271433
1631290361930,39199,262463,271445
1631290361940,39216,262438,271460
1631290361950,39229,262469,271424
1631290361960,39247,262492,271446
1631290361970,39264,262507,271482
1631290361980,39281,262519,271464
1631290361990,39310,262477,271462
1631290362000,39329,262538,271487
1631290362010,39351,262564,271488
1631290362020,39357,262573,271470
1631290362030,39384,262537,271503
1631290362040,39396,262587,271487
1631290362050,39417,262596,271514
1631290362060,39440,262606,271518
1631290362070,39454,262607,271535
1631290362080,39471,262616,271541
1631290362090,39477,262603,271536
1631290362100,39463,262562,271531
1631290362110,39449,262522,271519
1631290362120,39412,262530,271506
1631290362130,39365,262490,271502
1631290362140,39332,262434,271488
1631290362150,39262,262445,271467
1631290362160,39225,262397,271467
1631290362170,39178,262318,271441
1631290362180,39149,262315,271436
1631290362190,39106,262280,271407
1631290362200,39078,262248,271410
1631290362210,39041,262242,271404
1631290362220,39017,262245,271422
1631290362230,38984,262233,271351
1631290362240,38950,262220,271351
1631290362250,38933,262205,271355
1631290362260,38907,262172,271353
1631290362270,38882,262147,271349
1631290362280,38866,262150,271346
1631290362290,38841,262106,271332
1631290362300,38829,262086,271333
1631290362310,38827,262094,271348
1631290362320,38828,262079,271313
1631290362330,38828,262069,271335
1631290362340,38806,262091,271277
1631290362350,38804,262034,271329
1631290362360,38790,262057,271298
1631290362370,38787,262071,271342
1631290362380,38779,262029,271306
1631290362390,38765,262023,271326
1631290362400,38752,261995,271303
1631290362410,38743,261999,271318
1631290362420,38732,262026,271284
1631290362430,38726,261965,271317
1631290362440,38720,261998,271300
1631290362450,38715,261956,271270
1631290362460,38697,262002,271292
1631290362470,38702,261958,271278
1631290362480,38698,262007,271272
1631290362490,38695,261981,271282
1631290362500,38699,262007,271274
1631290362510,38691,261972,271277
1631290362520,38706,262021,271279
1631290362530,38707,262013,271294
1631290362540,38714,262003,271255
1631290362550,38729,261980,271270
1631290362560,38731,262009,271303
1631290362570,38735,261990,271275
1631290362580,38739,262015,271319
1631290362590,38744,261988,271338
1631290362600,38755,262000,271329
1631290362610,38768,262019,271304
1631290362620,38771,262021,271324
1631290362630,38789,262020,271316
1631290362640,38797,261971,271292
1631290362650,38815,262045,271329
1631290362660,38819,262032,271330
1631290362670,38831,262068,271353
1631290362680,38844,262054,271347
1631290362690,38856,262057,271343
1631290362700,38867,262049,271314
1631290362710,38889,262104,271359
1631290362720,38894,262061,271349
1631290362730,38913,262083,271343
1631290362740,38930,262106,271337
1631290362750,38936,262104,271351
1631290362760,38952,262104,271353
1631290362770,38962,262142,271374
1631290362780,38996,262150,271367
1631290362790,38993,262187,271378
1631290362800,39017,262149,271399
1631290362810,39023,262155,271371
1631290362820,39033,262225,271412
1631290362830,39055,262212,271434
1631290362840,39073,262240,271432
1631290362850,39090,262232,271428
1631290362860,39104,262256,271441
1631290362870,39129,262242,271465
1631290362880,39147,262256,271456
1631290362890,39164,262257,271467
1631290362900,39181,262319,271469
1631290362910,39201,262319,271457
1631290362920,39214,262298,271476
1631290362930,39230,262339,271517
1631290362940,39263,262327,271531
1631290362950,39251,262369,271542
1631290362960,39267,262331,271522
1631290362970,39266,262315,271542
1631290362980,39249,262262,271524
1631290362990,39211,262245,271548
1631290363000,39174,262197,271531
1631290363010,39127,262215,271484
1631290363020,39075,262137,271496
1631290363030,39042,262107,271452
1631290363040,38998,262086,271410
1631290363050,38960,262061,271444
1631290363060,38927,262059,271397
1631290363070,38891,261976,271392
1631290363080,38861,261966,271402
1631290363090,38836,262008,271391
1631290363100,38820,261958,271368
1631290363110,38796,261980,271337
1631290363120,38770,261938,271363
1631290363130,38752,261945,271333
1631290363140,38733,261934,271356
1631290363150,38723,261939,271367
1631290363160,38710,261902,271346
1631290363170,38700,261923,271301
1631290363180,38703,261930,271299
1631290363190,38699,261907,271337
1631290363200,38694,261865,271363
1631290363210,38694,261902,271320
1631290363220,38689,261900,271327
1631290363230,38683,261924,271328
1631290363240,38670,261878,271324
1631290363250,38667,261880,271350
1631290363260,38659,261860,271277
1631290363270,38649,261857,271357
1631290363280,38632,261893,271322
1631290363290,38627,261838,271324
1631290363300,38628,261840,271301
1631290363310,38613,261838,271309
1631290363320,38612,261846,271290
1631290363330,38610,261834,271298
1631290363340,38605,261821,271290
1631290363350,38607,261841,271291
1631290363360,38609,261827,271300
1631290363370,38615,261862,271267
1631290363380,38616,261844,271303
1631290363390,38621,261883,271300
1631290363400,38627,261857,271279
1631290363410,38632,261849,271315
1631290363420,38649,261855,271317
1631290363430,38650,261912,271273
1631290363440,38646,261875,271321
1631290363450,38670,261901,271291
1631290363460,38683,261937,271336
1631290363470,38688,261895,271296
1631290363480,38697,261928,271331
1631290363490,38708,261928,271330
1631290363500,38722,261973,271350
1631290363510,38742,261930,271346
1631290363520,38754,261934,271332
1631290363530,38761,261985,271337
1631290363540,38778,261975,271363
1631290363550,38795,261977,271365
1631290363560,38812,262005,271366
1631290363570,38813,262017,271355
1631290363580,38832,262051,271403
1631290363590,38843,262046,271413
1631290363600,38868,262037,271402
1631290363610,38876,262088,271427
1631290363620,38887,262068,271406
1631290363630,38919,262101,271428
1631290363640,38930,262106,271455
1631290363650,38945,262086,271439
1631290363660,38968,262133,271412
1631290363670,38974,262132,271467
1631290363680,38992,262138,271430
1631290363690,39016,262152,271428
1631290363700,39035,262113,271464
1631290363710,39052,262183,271466
1631290363720,39067,262191,271470
1631290363730,39079,262212,271508
1631290363740,39105,262271,271513
1631290363750,39117,262244,271482
1631290363760,39140,262291,271529
1631290363770,39152,262236,271526
1631290363780,39186,262261,271534
1631290363790,39196,262281,271539
1631290363800,39222,262323,271556
1631290363810,39236,262309,271563
1631290363820,39254,262350,271590
1631290363830,39244,262327,271586
1631290363840,39232,262291,271548
1631290363850,39211,262241,271566
1631290363860,39173,262271,271545
1631290363870,39125,262187,271529
1631290363880,39075,262159,271484
1631290363890,39022,262127,271515
1631290363900,38976,262108,271486
1631290363910,38931,262077,271507
1631290363920,38891,262021,271475
1631290363930,38846,262004,271464
1631290363940,38816,261985,271439
1631290363950,38795,261935,271424
1631290363960,38741,261980,271384
1631290363970,38717,261923,271412
1631290363980,38684,261908,271390
1631290363990,38658,261918,271407
1631290364000,38637,261895,271367
1631290364010,38608,261830,271396
1631290364020,38591,261829,271352
1631290364030,38571,261835,271356
1631290364040,38552,261802,271339
1631290364050,38544,261829,271358
1631290364060,38533,261795,271327
1631290364070,38528,261802,271350
1631290364080,38523,261800,271370
1631290364090,38525,261822,271369
1631290364100,38502,261784,271360
1631290364110,38505,261771,271348
1631290364120,38495,261745,271334
1631290364130,38476,261721,271312
1631290364140,38459,261749,271381
1631290364150,38453,261751,271302
1631290364160,38445,261765,271313
1631290364170,38437,261751,271343
1631290364180,38434,261728,271318
1631290364190,38427,261707,271306
1631290364200,38421,261723,271317
1631290364210,38409,261731,271333
1631290364220,38408,261717,271315
1631290364230,38414,261741,271270
1631290364240,38405,261724,271338
1631290364250,38403,261714,271330
1631290364260,38418,261712,271316
1631290364270,38426,261749,271274
1631290364280,38433,261731,271317
1631290364290,38434,261762,271325
1631290364300,38441,261745,271304
1631290364310,38445,261758,271323
1631290364320,38459,261787,271347
1631290364330,38469,261780,271341
1631290364340,38470,261787,271341
1631290364350,38482,261786,271328
1631290364360,38501,261762,271326
1631290364370,38502,261784,271351
1631290364380,38512,261831,271324
1631290364390,38525,261782,271386
1631290364400,38533,261864,271321
1631290364410,38559,261826,271347
1631290364420,38566,261852,271333
1631290364430,38578,261869,271375
1631290364440,38594,261862,271367
1631290364450,38610,261845,271377
1631290364460,38620,261894,271376
1631290364470,38638,261891,271389
1631290364480,38646,261937,271416
1631290364490,38668,261973,271401
1631290364500,38679,261938,271423
1631290364510,38701,261966,271399
1631290364520,38714,261984,271406
1631290364530,38731,261972,271433
1631290364540,38749,262004,271447
1631290364550,38761,262025,271465
1631290364560,38788,261999,271459
1631290364570,38797,262048,271477
1631290364580,38816,262043,271450
1631290364590,38833,262049,271485
1631290364600,38851,262093,271470
1631290364610,38864,262076,271478
1631290364620,38887,262079,271512
1631290364630,38908,262114,271514
1631290364640,38926,262141,271548
1631290364650,38948,262154,271543
1631290364660,38972,262164,271532
1631290364670,38987,262153,271518
1631290364680,39011,262187,271563
1631290364690,39019,262204,271578
1631290364700,39032,262212,271582
1631290364710,39023,262154,271599
1631290364720,39011,262185,271592
1631290364730,38973,262116,271590
1631290364740,38928,262083,271541
1631290364750,38884,262075,271520
1631290364760,38831,262005,271515
1631290364770,38785,261965,271510
1631290364780,38740,261950,271515
1631290364790,38699,261927,271481
1631290364800,38654,261875,271452
1631290364810,38620,261834,271456
1631290364820,38578,261807,271433
1631290364830,38552,261821,271434
1631290364840,38514,261799,271434
1631290364850,38483,261754,271412
1631290364860,38466,261788,271420
1631290364870,38434,261729,271396
1631290364880,38418,261703,271372
1631290364890,38370,261719,271395
1631290364900,38361,261673,271366
1631290364910,38334,261641,271350
1631290364920,38326,261659,271351
1631290364930,38313,261640,271397
1631290364940,38312,261634,271373
1631290364950,38302,261629,271343
1631290364960,38292,261585,271360
1631290364970,38283,261641,271367
1631290364980,38282,261617,271342
1631290364990,38266,261607,271337
1631290365000,38257,261602,271337
1631290365010,38248,261569,271331
1631290365020,38236,261613,271360
1631290365030,38231,261574,271316
1631290365040,38223,261611,271350
1631290365050,38219,261587,271349
1631290365060,38211,261539,271342
1631290365070,38212,261517,271334
1631290365080,38202,261571,271330
1631290365090,38195,261543,271344
1631290365100,38193,261539,271286
1631290365110,38196,261553,271304
1631290365120,38195,261550,271351
1631290365130,38196,261570,271337
1631290365140,38212,261542,271326
1631290365150,38206,261553,271349
1631290365160,38210,261573,271323
1631290365170,38220,261566,271301
1631290365180,38221,261524,271334
1631290365190,38230,261555,271353
1631290365200,38242,261571,271343
1631290365210,38249,261558,271350
1631290365220,38259,261594,271332
1631290365230,38272,261604,271376
1631290365240,38282,261601,271350
1631290365250,38302,261566,271374
1631290365260,38308,261571,271394
1631290365270,38325,261612,271359
1631290365280,38330,261611,271379
1631290365290,38354,261611,271396
1631290365300,38367,261656,271373
1631290365310,38377,261649,271407
1631290365320,38391,261647,271397
1631290365330,38409,261657,271405
1631290365340,38417,261615,271374
1631290365350,38439,261705,271416
1631290365360,38449,261652,271439
1631290365370,38468,261666,271437
1631290365380,38478,261695,271462
1631290365390,38508,261712,271453
1631290365400,38508,261723,271447
1631290365410,38532,261710,271429
1631290365420,38543,261719,271462
1631290365430,38559,261718,271443
1631290365440,38579,261762,271515
1631290365450,38591,261815,271490
1631290365460,38606,261786,271526
1631290365470,38636,261819,271495
1631290365480,38647,261787,271517
1631290365490,38664,261812,271573
1631290365500,38686,261793,271549
1631290365510,38705,261869,271566
1631290365520,38723,261828,271537
1631290365530,38735,261848,271584
1631290365540,38766,261888,271546
1631290365550,38779,261918,271577
1631290365560,38801,261908,271581
1631290365570,38817,261882,271597
1631290365580,38825,261954,271628
1631290365590,38818,261912,271635
1631290365600,38802,261857,271616
1631290365610,38775,261818,271624
1631290365620,38729,261827,271578
1631290365630,38683,261738,271561
1631290365640,38640,261740,271544
1631290365650,38592,261730,271564
1631290365660,38550,261645,271515
1631290365670,38503,261599,271525
1631290365680,38461,261582,271550
1631290365690,38429,261608,271506
1631290365700,38397,261565,271478
1631290365710,38360,261529,271498
1631290365720,38323,261542,271490
1631290365730,38308,261496,271444
1631290365740,38267,261474,271471
1631290365750,38259,261448,271448
1631290365760,38228,261451,271410
1631290365770,38203,261417,271425
1631290365780,38182,261406,271403
1631290365790,38165,261358,271410
1631290365800,38143,261379,271383
1631290365810,38136,261376,271375
1631290365820,38127,261348,271389
1631290365830,38119,261354,271359
1631290365840,38113,261360,271372
1631290365850,38114,261359,271382
1631290365860,38101,261366,271374
1631290365870,38083,261316,271368
1631290365880,38069,261297,271373
1631290365890,38064,261335,271298
1631290365900,38052,261305,271348
1631290365910,38040,261298,271359
1631290365920,38031,261256,271356
1631290365930,38017,261289,271340
1631290365940,38019,261303,271345
1631290365950,38002,261245,271328
1631290365960,38001,261255,271330
1631290365970,38002,261239,271362
1631290365980,37991,261278,271333
1631290365990,37994,261257,271321
1631290366000,37993,261241,271346
1631290366010,37995,261246,271332
1631290366020,37997,261272,271337
1631290366030,38011,261263,271331
1631290366040,38011,261269,271326
1631290366050,38017,261234,271332
1631290366060,38022,261287,271333
1631290366070,38023,261249,271341
1631290366080,38035,261280,271336
1631290366090,38038,261296,271358
1631290366100,38050,261307,271367
1631290366110,38071,261292,271356
1631290366120,38071,261308,271373
1631290366130,38088,261345,271345
1631290366140,38091,261320,271368
1631290366150,38101,261349,271378
1631290366160,38109,261386,271343
1631290366170,38128,261305,271381
1631290366180,38139,261343,271381
1631290366190,38148,261372,271388
1631290366200,38170,261410,271386
1631290366210,38183,261390,271381
1631290366220,38205,261393,271436
1631290366230,38202,261404,271398
1631290366240,38214,261407,271417
1631290366250,38230,261413,271445
1631290366260,38244,261461,271480
1631290366270,38252,261484,271438
1631290366280,38268,261442,271441
1631290366290,38286,261454,271481
1631290366300,38296,261500,271445
1631290366310,38313,261470,271472
1631290366320,38327,261477,271481
1631290366330,38344,261511,271521
1631290366340,38353,261607,271502
1631290366350,38383,261547,271489
1631290366360,38401,261545,271518
1631290366370,38412,261547,271532
1631290366380,38436,261624,271550
1631290366390,38449,261614,271529
1631290366400,38472,261626,271559
1631290366410,38486,261630,271541
1631290366420,38507,261634,271567
1631290366430,38525,261609,271571
1631290366440,38535,261671,271597
1631290366450,38533,261621,271592
1631290366460,38515,261606,271585
1631290366470,38491,261601,271548
1631290366480,38450,261525,271590
1631290366490,38403,261483,271566
1631290366500,38364,261491,271572
1631290366510,38333,261428,271507
1631290366520,38280,261398,271551
1631290366530,38234,261425,271557
1631290366540,38205,261386,271504
1631290366550,38168,261355,271499
1631290366560,38148,261353,271485
1631290366570,38114,261294,271456
1631290366580,38090,261316,271467
1631290366590,38065,261247,271438
1631290366600,38038,261243,271440
1631290366610,38019,261256,271449
1631290366620,38005,261197,271463
1631290366630,37983,261244,271423
1631290366640,37967,261179,271429
1631290366650,37951,261219,271412
1631290366660,37944,261168,271412
1631290366670,37943,261206,271430
1631290366680,37939,261186,271398
1631290366690,37932,261201,271376
1631290366700,37930,261210,271399
1631290366710,37917,261151,271393
1631290366720,37916,261168,271392
1631290366730,37899,261142,271415
1631290366740,37894,261201,271416
1631290366750,37887,261122,271375
1631290366760,37879,261174,271436
1631290366770,37877,261133,271391
1631290366780,37865,261157,271380
1631290366790,37863,261110,271385
1631290366800,37855,261120,271381
1631290366810,37851,261088,271403
1631290366820,37848,261121,271371
1631290366830,37851,261096,271379
1631290366840,37856,261088,271420
1631290366850,37857,261091,271393
1631290366860,37854,261130,271388
1631290366870,37860,261122,271371
1631290366880,37862,261110,271391
1631290366890,37865,261125,271374
1631290366900,37877,261103,271409
1631290366910,37881,261125,271408
1631290366920,37891,261138,271382
1631290366930,37891,261136,271385
1631290366940,37902,261167,271433
1631290366950,37913,261157,271427
1631290366960,37922,261148,271408
1631290366970,37929,261115,271426
1631290366980,37936,261101,271423
1631290366990,37950,261173,271426
1631290367000,37967,261140,271395
1631290367010,37978,261157,271442
1631290367020,37990,261177,271457
1631290367030,38001,261218,271489
1631290367040,38027,261218,271448
1631290367050,38027,261204,271460
1631290367060,38038,261206,271457
1631290367070,38058,261213,271479
1631290367080,38060,261214,271513
1631290367090,38090,261271,271508
1631290367100,38097,261278,271487
1631290367110,38108,261246,271496
1631290367120,38128,261265,271554
1631290367130,38146,261298,271537
1631290367140,38157,261277,271562
1631290367150,38173,261300,271547
1631290367160,38202,261318,271560
1631290367170,38207,261381,271582
1631290367180,38229,261370,271585
1631290367190,38235,261379,271588
1631290367200,38253,261405,271584
1631290367210,38271,261383,271600
1631290367220,38293,261387,271613
1631290367230,38310,261402,271620
1631290367240,38329,261417,271615
1631290367250,38359,261452,271656
1631290367260,38366,261448,271671
1631290367270,38391,261450,271677
1631290367280,38407,261497,271658
1631290367290,38426,261482,271681
1631290367300,38427,261443,271669
1631290367310,38419,261477,271717
1631290367320,38393,261423,271685
1631290367330,38353,261413,271700
1631290367340,38315,261345,271650
1631290367350,38273,261322,271637
1631290367360,38233,261282,271645
1631290367370,38168,261270,271613
1631290367380,38127,261240,271588
1631290367390,38082,261194,271599
1631290367400,38047,261154,271570
1631290367410,38009,261149,271548
1631290367420,37962,261133,271581
1631290367430,37938,261075,271563
1631290367440,37899,261065,271532
1631290367450,37880,261071,271532
1631290367460,37847,261013,271522
1631290367470,37818,261032,271508
1631290367480,37784,260996,271498
1631290367490,37767,260987,271475
1631290367500,37744,260977,271516
1631290367510,37724,260930,271462
1631290367520,37705,260947,271468
1631290367530,37680,260938,271485
1631290367540,37675,260908,271432
1631290367550,37666,260908,271456
1631290367560,37656,260936,271436
1631290367570,37653,260870,271445
1631290367580,37642,260852,271442
1631290367590,37636,260833,271443
1631290367600,37621,260851,271429
1631290367610,37609,260862,271437
1631290367620,37594,260871,271395
1631290367630,37584,260787,271404
1631290367640,37590,260817,271399
1631290367650,37583,260813,271406
1631290367660,37557,260793,271414
1631290367670,37548,260810,271402
1631290367680,37544,260757,271390
1631290367690,37538,260775,271383
1631290367700,37542,260788,271423
1631290367710,37540,260766,271414
1631290367720,37540,260789,271357
1631290367730,37543,260781,271384
1631290367740,37540,260780,271411
1631290367750,37552,260783,271424
1631290367760,37548,260785,271421
1631290367770,37556,260776,271404
1631290367780,37558,260786,271408
1631290367790,37572,260770,271410
1631290367800,37580,260780,271402
1631290367810,37593,260829,271448
1631290367820,37586,260776,271438
1631290367830,37592,260823,271439
1631290367840,37601,260837,271450
1631290367850,37625,260831,271444
1631290367860,37633,260840,271447
1631290367870,37647,260825,271444
1631290367880,37657,260829,271476
1631290367890,37674,260872,271464
1631290367900,37676,260895,271483
1631290367910,37691,260867,271498
1631290367920,37704,260876,271481
1631290367930,37723,260906,271486
1631290367940,37728,260930,271482
1631290367950,37746,260903,271463
1631290367960,37754,260909,271504
1631290367970,37776,260895,271503
1631290367980,37780,260959,271487
1631290367990,37798,260938,271508
1631290368000,37820,260948,271557
1631290368010,37821,260991,271531
1631290368020,37843,261014,271565
1631290368030,37852,260985,271560
1631290368040,37868,261021,271544
1631290368050,37885,260989,271585
1631290368060,37913,261020,271578
1631290368070,37920,261103,271600
1631290368080,37937,261056,271583
1631290368090,37955,261075,271607
1631290368100,37970,261096,271598
1631290368110,37994,261127,271615
1631290368120,38005,261127,271633
1631290368130,38032,261138,271689
1631290368140,38055,261163,271670
1631290368150,38062,261150,271666
1631290368160,38102,261189,271690
1631290368170,38109,261176,271732
1631290368180,38108,261187,271701
1631290368190,38098,261188,271682
1631290368200,38079,261117,271729
1631290368210,38048,261099,271690
1631290368220,38001,261086,271684
1631290368230,37949,261031,271663
1631290368240,37904,261009,271668
1631290368250,37861,260931,271655
1631290368260,37807,260938,271622
1631290368270,37767,260875,271631
1631290368280,37727,260878,271610
1631290368290,37683,260830,271609
1631290368300,37655,260837,271577
1631290368310,37627,260808,271546
1631290368320,37585,260782,271568
1631290368330,37557,260752,271553
1631290368340,37515,260717,271553
1631290368350,37492,260726,271564
1631290368360,37464,260680,271526
1631290368370,37436,260659,271541
1631290368380,37409,260647,271522
1631290368390,37384,260624,271505
1631290368400,37366,260599,271511
1631290368410,37347,260597,271485
1631290368420,37334,260579,271498
1631290368430,37326,260576,271493
1631290368440,37316,260541,271494
1631290368450,37305,260593,271494
1631290368460,37307,260588,271465
1631290368470,37295,260544,271496
1631290368480,37283,260537,271479
1631290368490,37277,260518,271480
1631290368500,37255,260510,271495
1631290368510,37243,260483,271441
1631290368520,37238,260515,271481
1631290368530,37234,260478,271430
1631290368540,37225,260485,271459
1631290368550,37219,260495,271431
1631290368560,37217,260501,271443
1631290368570,37207,260502,271444
1631290368580,37201,260471,271480
1631290368590,37207,260462,271436
1631290368600,37206,260471,271456
1631290368610,37206,260432,271451
1631290368620,37218,260477,271482
1631290368630,37220,260465,271461
1631290368640,37215,260471,271463
1631290368650,37225,260464,271473
1631290368660,37243,260460,271471
1631290368670,37234,260486,271466
1631290368680,37247,260496,271491
1631290368690,37256,260473,271490
1631290368700,37272,260520,271519
1631290368710,37270,260556,271513
1631290368720,37284,260537,271496
1631290368730,37294,260531,271501
1631290368740,37310,260498,271539
1631290368750,37322,260517,271530
1631290368760,37332,260557,271540
1631290368770,37337,260519,271558
1631290368780,37355,260551,271541
1631290368790,37368,260586,271532
1631290368800,37372,260585,271552
1631290368810,37388,260560,271551
1631290368820,37414,260615,271572
1631290368830,37419,260561,271550
1631290368840,37430,260604,271566
1631290368850,37442,260637,271588
1631290368860,37461,260622,271584
1631290368870,37468,260628,271612
1631290368880,37489,260648,271621
1631290368890,37494,260640,271613
1631290368900,37523,260672,271623
1631290368910,37537,260702,271652
1631290368920,37545,260670,271626
1631290368930,37569,260706,271640
1631290368940,37580,260725,271686
1631290368950,37613,260710,271652
1631290368960,37604,260763,271698
1631290368970,37636,260710,271700
1631290368980,37658,260771,271673
1631290368990,37666,260778,271688
1631290369000,37690,260787,271705
1631290369010,37713,260795,271711
1631290369020,37731,260851,271719
1631290369030,37752,260860,271729
1631290369040,37774,260833,271728
1631290369050,37793,260827,271748
1631290369060,37804,260826,271750
1631290369070,37809,260860,271785
1631290369080,37808,260855,271776
1631290369090,37786,260836,271778
1631290369100,37764,260815,271753
1631290369110,37722,260762,271735
1631290369120,37677,260727,271757
1631290369130,37625,260682,271722
1631290369140,37578,260670,271711
1631290369150,37542,260655,271712
1631290369160,37502,260620,271704
1631290369170,37452,260590,271671
1631290369180,37429,260554,271649
1631290369190,37399,260513,271652
1631290369200,37368,260533,271700
1631290369210,37341,260502,271645
1631290369220,37313,260510,271649
1631290369230,37280,260436,271619
1631290369240,37256,260446,271632
1631290369250,37234,260407,271595
1631290369260,37217,260389,271589
1631290369270,37198,260382,271589
1631290369280,37178,260374,271625
1631290369290,37162,260387,271605
1631290369300,37155,260362,271576
1631290369310,37142,260336,271593
1631290369320,37137,260400,271563
1631290369330,37129,260382,271561
1631290369340,37126,260358,271546
1631290369350,37123,260330,271556
1631290369360,37108,260341,271585
1631290369370,37100,260298,271564
1631290369380,37098,260305,271584
1631290369390,37088,260308,271557
1631290369400,37083,260307,271547
1631290369410,37075,260310,271548
1631290369420,37071,260294,271571
1631290369430,37071,260261,271535
1631290369440,37067,260301,271512
1631290369450,37064,260303,271574
1631290369460,37052,260266,271569
1631290369470,37056,260253,271555
1631290369480,37054,260244,271542
1631290369490,37062,260290,271541
1631290369500,37060,260311,271546
1631290369510,37069,260273,271540
1631290369520,37078,260330,271515
1631290369530,37090,260320,271534
1631290369540,37094,260279,271549
1631290369550,37097,260314,271587
1631290369560,37112,260311,271560
1631290369570,37119,260320,271599
1631290369580,37121,260315,271567
1631290369590,37138,260338,271597
1631290369600,37146,260362,271588
1631290369610,37160,260346,271608
1631290369620,37171,260350,271589
1631290369630,37170,260363,271589
1631290369640,37195,260339,271625
1631290369650,37209,260385,271618
1631290369660,37222,260391,271637
1631290369670,37235,260385,271639
1631290369680,37247,260402,271659
1631290369690,37265,260406,271672
1631290369700,37269,260461,271699
1631290369710,37292,260471,271679
1631290369720,37310,260496,271693
1631290369730,37318,260464,271669
1631290369740,37330,260480,271673
1631290369750,37346,260484,271704
1631290369760,37365,260540,271717
1631290369770,37380,260519,271708
1631290369780,37393,260508,271725
1631290369790,37404,260551,271723
1631290369800,37431,260562,271745
1631290369810,37443,260540,271730
1631290369820,37459,260567,271731
1631290369830,37480,260578,271774
1631290369840,37501,260607,271754
1631290369850,37514,260588,271758
1631290369860,37528,260631,271774
1631290369870,37557,260665,271790
1631290369880,37568,260673,271809
1631290369890,37593,260703,271825
1631290369900,37615,260686,271791
1631290369910,37631,260711,271859
1631290369920,37657,260715,271836
1631290369930,37679,260763,271851
1631290369940,37701,260775,271880
1631290369950,37707,260752,271881
1631290369960,37711,260802,271879
1631290369970,37714,260759,271868
1631290369980,37689,260727,271867
1631290369990,37663,260719,271872
1631290370000,37624,260703,271888
1631290370010,37585,260633,271808
1631290370020,37543,260634,271807
1631290370030,37512,260584,271794
1631290370040,37476,260508,271791
1631290370050,37450,260551,271799
1631290370060,37413,260512,271766
1631290370070,37390,260495,271767
1631290370080,37365,260492,271764
1631290370090,37347,260465,271776
1631290370100,37327,260465,271784
1631290370110,37311,260449,271773
1631290370120,37309,260450,271768
1631290370130,37277,260466,271765
1631290370140,37265,260423,271736
1631290370150,37251,260396,271735
1631290370160,37237,260401,271752
1631290370170,37239,260388,271717
1631290370180,37235,260383,271722
1631290370190,37231,260383,271747
1631290370200,37232,260391,271744
1631290370210,37228,260399,271722
1631290370220,37227,260378,271727
1631290370230,37231,260371,271727
1631290370240,37214,260391,271700
1631290370250,37217,260383,271708
1631290370260,37220,260376,271681
1631290370270,37220,260346,271744
1631290370280,37204,260355,271761
1631290370290,37199,260372,271696
1631290370300,37203,260347,271734
1631290370310,37194,260360,271717
1631290370320,37201,260391,271721
1631290370330,37203,260391,271723
1631290370340,37203,260349,271721
1631290370350,37209,260339,271711
1631290370360,37210,260361,271728
1631290370370,37218,260379,271711
1631290370380,37219,260333,271709
1631290370390,37226,260402,271747
1631290370400,37245,260349,271699
1631290370410,37255,260374,271752
1631290370420,37266,260389,271758
1631290370430,37276,260385,271762
1631290370440,37276,260382,271781
1631290370450,37293,260405,271750
1631290370460,37307,260404,271766
1631290370470,37316,260421,271801
1631290370480,37328,260408,271801
1631290370490,37345,260494,271788
1631290370500,37358,260481,271772
1631290370510,37382,260479,271792
1631290370520,37395,260500,271780
1631290370530,37408,260503,271797
1631290370540,37423,260504,271804
1631290370550,37437,260536,271814
1631290370560,37458,260515,271776
1631290370570,37464,260555,271792
1631290370580,37480,260564,271837
1631290370590,37495,260535,271820
1631290370600,37509,260560,271821
1631290370610,37530,260547,271850
1631290370620,37556,260589,271872
1631290370630,37572,260628,271853
1631290370640,37589,260631,271866
1631290370650,37609,260656,271876
1631290370660,37621,260645,271881
1631290370670,37645,260661,271857
1631290370680,37667,260677,271894
1631290370690,37672,260664,271909
1631290370700,37699,260712,271934
1631290370710,37704,260731,271941
1631290370720,37736,260754,271923
1631290370730,37751,260748,271929
1631290370740,37772,260736,271941
1631290370750,37793,260783,271949
1631290370760,37813,260829,271982
1631290370770,37826,260771,271968
1631290370780,37854,260811,271960
1631290370790,37883,260868,272007
1631290370800,37902,260866,272005
1631290370810,37915,260913,271986
1631290370820,37939,260893,272023
1631290370830,37964,260894,272046
1631290370840,37974,260922,272046
1631290370850,37989,260965,272066
1631290370860,37994,260928,272040
1631290370870,37978,260903,272068
1631290370880,37962,260865,272013
1631290370890,37929,260830,272054
1631290370900,37891,260803,272047
1631290370910,37862,260770,271994
1631290370920,37798,260757,272011
1631290370930,37770,260755,272008
1631290370940,37743,260690,271979
1631290370950,37708,260684,271958
1631290370960,37677,260684,271998
1631290370970,37652,260653,271968
1631290370980,37620,260650,271938
1631290370990,37594,260623,271928
1631290371000,37573,260597,271914
1631290371010,37563,260551,271932
1631290371020,37535,260545,271935
1631290371030,37517,260564,271877
1631290371040,37499,260541,271905
1631290371050,37481,260541,271869
1631290371060,37468,260543,271898
1631290371070,37449,260494,271876
1631290371080,37444,260476,271876
1631290371090,37447,260479,271867
1631290371100,37429,260491,271898
1631290371110,37427,260512,271869
1631290371120,37422,260472,271859
1631290371130,37418,260476,271860
1631290371140,37416,260486,271849
1631290371150,37417,260483,271837
1631290371160,37399,260505,271861
1631290371170,37405,260520,271863
1631290371180,37401,260434,271858
1631290371190,37395,260468,271844
1631290371200,37391,260419,271854
1631290371210,37384,260469,271847
1631290371220,37387,260465,271854
1631290371230,37387,260461,271842
1631290371240,37386,260456,271839
1631290371250,37395,260469,271850
1631290371260,37388,260429,271852
1631290371270,37386,260442,271830
1631290371280,37397,260466,271870
1631290371290,37411,260492,271860
1631290371300,37424,260496,271860
1631290371310,37423,260474,271847
1631290371320,37427,260501,271848
1631290371330,37451,260492,271825
1631290371340,37455,260513,271837
1631290371350,37460,260524,271847
1631290371360,37468,260521,271864
1631290371370,37488,260525,271881
1631290371380,37507,260530,271870
1631290371390,37515,260544,271877
1631290371400,37521,260570,271863
1631290371410,37540,260525,271898
1631290371420,37553,260591,271889
1631290371430,37563,260583,271870
1631290371440,37587,260598,271913
1631290371450,37601,260628,271893
1631290371460,37616,260632,271926
1631290371470,37627,260601,271921
1631290371480,37643,260631,271950
1631290371490,37655,260636,271944
1631290371500,37673,260691,271933
1631290371510,37695,260691,271949
1631290371520,37710,260675,271934
1631290371530,37729,260680,271923
1631290371540,37738,260686,271950
1631290371550,37764,260701,271960
1631290371560,37775,260716,271985
1631290371570,37799,260749,271972
1631290371580,37811,260754,272006
1631290371590,37832,260785,272013
1631290371600,37850,260769,271999
1631290371610,37870,260819,271986
1631290371620,37891,260815,272046
1631290371630,37905,260835,272027
1631290371640,37925,260814,272035
1631290371650,37948,260858,272047
1631290371660,37968,260851,272053
1631290371670,37986,260885,272082
1631290371680,38005,260897,272041
1631290371690,38035,260934,272079
1631290371700,38045,260952,272079
1631290371710,38070,260926,272066
1631290371720,38092,260973,272092
1631290371730,38120,260980,272099
1631290371740,38131,261019,272107
1631290371750,38164,261012,272131
1631290371760,38185,261034,272139
1631290371770,38196,261038,272138
1631290371780,38200,261016,272144
1631290371790,38187,260995,272152
1631290371800,38173,260980,272144
1631290371810,38133,260932,272142
1631290371820,38111,260939,272131
1631290371830,38071,260907,272092
1631290371840,38029,260890,272100
1631290371850,37994,260889,272098
1631290371860,37963,260799,272086
1631290371870,37935,260839,272102
1631290371880,37906,260762,272063
1631290371890,37871,260814,272049
1631290371900,37846,260768,272073
1631290371910,37823,260726,272018
1631290371920,37798,260739,272026
1631290371930,37773,260684,272029
1631290371940,37766,260704,272020
1631290371950,37738,260671,271986
1631290371960,37718,260677,272004
1631290371970,37709,260662,271995
1631290371980,37694,260657,272021
1631290371990,37670,260634,271981
1631290372000,37663,260625,271979
1631290372010,37662,260608,271980
1631290372020,37652,260655,271979
1631290372030,37655,260616,271972
1631290372040,37647,260611,271969
1631290372050,37642,260608,272002
1631290372060,37645,260639,271990
1631290372070,37637,260595,271956
1631290372080,37639,260590,271975
1631290372090,37630,260580,271968
1631290372100,37633,260619,271984
1631290372110,37628,260600,271939
1631290372120,37623,260567,271961
1631290372130,37630,260569,271967
1631290372140,37621,260578,271968
1631290372150,37621,260588,271956
1631290372160,37621,260566,271949
1631290372170,37624,260607,271955
1631290372180,37626,260587,271943
1631290372190,37627,260616,271923
1631290372200,37643,260631,271963
1631290372210,37634,260574,271953
1631290372220,37642,260608,271941
1631290372230,37655,260628,271968
1631290372240,37673,260630,271970
1631290372250,37678,260597,271966
1631290372260,37684,260673,271948
1631290372270,37699,260638,271973
1631290372280,37709,260680,271976
1631290372290,37722,260704,271939
1631290372300,37739,260674,271964
1631290372310,37750,260666,271977
1631290372320,37762,260706,271971
1631290372330,37784,260703,271992
1631290372340,37794,260691,271940
1631290372350,37809,260728,271994
1631290372360,37825,260689,271977
1631290372370,37840,260734,271983
1631290372380,37857,260743,272016
1631290372390,37864,260771,272007
1631290372400,37883,260781,272021
1631290372410,37901,260797,272036
1631290372420,37917,260787,272012
1631290372430,37936,260822,272041
1631290372440,37954,260871,272069
1631290372450,37968,260833,272054
