timestamp,green,ir,red
1629810615833,77458,292267,368504
1629810615843,77424,292278,368506
1629810615853,77410,292248,368514
1629810615863,77411,292215,368510
1629810615873,77397,292262,368509
1629810615883,77404,292277,368513
1629810615893,77388,292240,368509
1629810615903,77367,292216,368506
1629810615913,77387,292257,368523
1629810615923,77395,292266,368503
1629810615933,77359,292246,368524
1629810615943,77377,292241,368545
1629810615953,77370,292268,368538
1629810615963,77368,292285,368541
1629810615973,77344,292266,368574
1629810615983,77363,292231,368539
1629810615993,77363,292286,368539
1629810616003,77354,292314,368596
1629810616013,77352,292313,368619
1629810616023,77358,292339,368621
1629810616033,77367,292329,368606
1629810616043,77364,292271,368578
1629810616053,77374,292318,368569
1629810616063,77365,292318,368583
1629810616073,77389,292303,368550
1629810616083,77407,292331,368611
1629810616093,77382,292318,368603
1629810616103,77395,292346,368576
1629810616113,77393,292354,368594
1629810616123,77408,292360,368591
1629810616133,77417,292355,368619
1629810616143,77412,292378,368641
1629810616153,77433,292383,368636
1629810616163,77435,292403,368641
1629810616173,77429,292408,368627
1629810616183,77446,292437,368659
1629810616193,77456,292439,368632
1629810616203,77453,292460,368665
1629810616213,77464,292430,368644
1629810616223,77470,292476,368626
1629810616233,77504,292471,368651
1629810616243,77506,292454,368675
1629810616253,77527,292474,368675
1629810616263,77521,292467,368691
1629810616273,77529,292531,368659
1629810616283,77547,292499,368693
1629810616293,77548,292479,368688
1629810616303,77558,292566,368700
1629810616313,77547,292527,368735
1629810616323,77567,292564,368689
1629810616333,77577,292565,368688
1629810616343,77585,292571,368699
1629810616353,77596,292593,368709
1629810616363,77607,292602,368695
1629810616373,77630,292635,368705
1629810616383,77655,292648,368720
1629810616393,77651,292623,368784
1629810616403,77660,292636,368712
1629810616413,77682,292672,368749
1629810616423,77697,292650,368725
1629810616433,77712,292665,368732
1629810616443,77730,292705,368760
1629810616453,77744,292729,368778
1629810616463,77749,292724,368772
1629810616473,77740,292710,368671
1629810616483,77723,292677,368703
1629810616493,77711,292653,368683
1629810616503,77701,292605,368654
1629810616513,77664,292560,368581
1629810616523,77625,292534,368592
1629810616533,77594,292471,368557
1629810616543,77566,292433,368537
1629810616553,77531,292388,368526
1629810616563,77512,292399,368541
1629810616573,77507,292417,368556
1629810616583,77464,292416,368536
1629810616593,77452,292404,368525
1629810616603,77415,292354,368505
1629810616613,77380,292294,368514
1629810616623,77354,292322,368515
1629810616633,77331,292275,368499
1629810616643,77300,292272,368478
1629810616653,77258,292238,368457
1629810616663,77230,292219,368471
1629810616673,77198,292175,368486
1629810616683,77158,292161,368490
1629810616693,77133,292110,368432
1629810616703,77099,292079,368495
1629810616713,77057,292082,368447
1629810616723,77033,292088,368467
1629810616733,76990,292097,368462
1629810616743,76967,292061,368451
1629810616753,76949,292022,368422
1629810616763,76915,292033,368453
1629810616773,76906,292053,368469
1629810616783,76896,292046,368479
1629810616793,76880,292033,368475
1629810616803,76855,292024,368518
1629810616813,76837,291989,368472
1629810616823,76803,291990,368495
1629810616833,76787,292041,368479
1629810616843,76775,291994,368492
1629810616853,76750,291991,368503
1629810616863,76737,292011,368488
1629810616873,76729,291981,368453
1629810616883,76723,291989,368508
1629810616893,76700,292038,368502
1629810616903,76692,292012,368518
1629810616913,76703,292023,368474
1629810616923,76675,291983,368526
1629810616933,76675,292019,368512
1629810616943,76669,292032,368505
1629810616953,76661,292011,368538
1629810616963,76654,292012,368514
1629810616973,76643,292009,368552
1629810616983,76656,292026,368562
1629810616993,76640,291993,368528
1629810617003,76635,292043,368576
1629810617013,76645,292052,368572
1629810617023,76638,292036,368620
1629810617033,76643,292050,368593
1629810617043,76641,292057,368600
1629810617053,76640,292124,368618
1629810617063,76638,292007,368563
1629810617073,76654,292063,368631
1629810617083,76651,292067,368616
1629810617093,76646,292106,368601
1629810617103,76659,292085,368585
1629810617113,76655,292113,368629
1629810617123,76666,292110,368643
1629810617133,76677,292125,368644
1629810617143,76679,292135,368653
1629810617153,76678,292122,368630
1629810617163,76679,292138,368642
1629810617173,76688,292187,368677
1629810617183,76692,292170,368686
1629810617193,76703,292186,368643
1629810617203,76704,292195,368678
1629810617213,76710,292252,368764
1629810617223,76733,292277,368691
1629810617233,76737,292195,368717
1629810617243,76745,292196,368699
1629810617253,76754,292235,368733
1629810617263,76772,292266,368698
1629810617273,76781,292239,368710
1629810617283,76783,292273,368726
1629810617293,76789,292277,368728
1629810617303,76807,292282,368724
1629810617313,76823,292293,368734
1629810617323,76822,292338,368733
1629810617333,76839,292321,368764
1629810617343,76841,292356,368730
1629810617353,76854,292325,368720
1629810617363,76862,292398,368758
1629810617373,76884,292408,368748
1629810617383,76891,292374,368792
1629810617393,76891,292409,368756
1629810617403,76903,292446,368755
1629810617413,76936,292442,368803
1629810617423,76932,292422,368793
1629810617433,76953,292461,368780
1629810617443,76965,292482,368834
1629810617453,76977,292518,368812
1629810617463,76981,292540,368826
1629810617473,76997,292522,368802
1629810617483,77015,292554,368801
1629810617493,77027,292592,368786
1629810617503,77037,292557,368834
1629810617513,77040,292543,368782
1629810617523,77031,292532,368778
1629810617533,77050,292509,368789
1629810617543,77003,292473,368730
1629810617553,76985,292419,368716
1629810617563,76958,292367,368696
1629810617573,76913,292427,368689
1629810617583,76885,292326,368694
1629810617593,76851,292329,368714
1629810617603,76816,292337,368688
1629810617613,76793,292303,368683
1629810617623,76761,292280,368715
1629810617633,76740,292248,368709
1629810617643,76717,292260,368703
1629810617653,76671,292240,368744
1629810617663,76648,292252,368713
1629810617673,76633,292221,368689
1629810617683,76580,292229,368696
1629810617693,76572,292190,368687
1629810617703,76523,292163,368684
1629810617713,76483,292137,368672
1629810617723,76447,292124,368706
1629810617733,76446,292125,368669
1629810617743,76403,292046,368692
1629810617753,76368,292086,368676
1629810617763,76329,292091,368700
1629810617773,76300,292050,368753
1629810617783,76284,292049,368730
1629810617793,76271,292083,368811
1629810617803,76250,292078,368853
1629810617813,76236,292104,368847
1629810617823,76230,292104,368865
1629810617833,76214,292094,368866
1629810617843,76200,292091,368900
1629810617853,76192,292082,368881
1629810617863,76164,292065,368877
1629810617873,76135,292018,368858
1629810617883,76140,292029,368836
1629810617893,76094,291995,368796
1629810617903,76091,291991,368800
1629810617913,76070,291971,368758
1629810617923,76057,291962,368759
1629810617933,76039,291944,368748
1629810617943,76009,291932,368697
1629810617953,76006,291866,368703
1629810617963,75990,291881,368694
1629810617973,75975,291876,368693
1629810617983,75964,291870,368647
1629810617993,75971,291821,368657
1629810618003,75949,291828,368647
1629810618013,75940,291817,368568
1629810618023,75946,291796,368604
1629810618033,75936,291773,368571
1629810618043,75943,291786,368574
1629810618053,75940,291747,368550
1629810618063,75920,291717,368480
1629810618073,75927,291738,368475
1629810618083,75895,291728,368416
1629810618093,75905,291654,368426
1629810618103,75897,291690,368387
1629810618113,75900,291673,368375
1629810618123,75896,291659,368380
1629810618133,75892,291651,368344
1629810618143,75893,291652,368399
1629810618153,75878,291675,368368
1629810618163,75880,291646,368368
1629810618173,75893,291660,368376
1629810618183,75896,291622,368343
1629810618193,75905,291608,368326
1629810618203,75881,291642,368303
1629810618213,75908,291653,368335
1629810618223,75898,291617,368341
1629810618233,75911,291633,368309
1629810618243,75918,291644,368296
1629810618253,75926,291659,368292
1629810618263,75912,291627,368286
1629810618273,75918,291629,368297
1629810618283,75931,291670,368280
1629810618293,75941,291613,368300
1629810618303,75943,291678,368309
1629810618313,75946,291631,368241
1629810618323,75949,291671,368263
1629810618333,75966,291684,368266
1629810618343,75985,291627,368250
1629810618353,75987,291634,368249
1629810618363,76000,291654,368199
1629810618373,75999,291658,368226
1629810618383,76020,291680,368204
1629810618393,76020,291669,368241
1629810618403,76019,291671,368206
1629810618413,76052,291682,368189
1629810618423,76050,291663,368212
1629810618433,76052,291728,368195
1629810618443,76065,291719,368237
1629810618453,76069,291743,368268
1629810618463,76093,291732,368215
1629810618473,76110,291744,368224
1629810618483,76114,291756,368179
1629810618493,76110,291727,368161
1629810618503,76086,291681,368144
1629810618513,76073,291618,368084
1629810618523,76007,291581,368038
1629810618533,75978,291552,367999
1629810618543,75949,291488,368024
1629810618553,75916,291476,367958
1629810618563,75863,291443,367959
1629810618573,75842,291431,367975
1629810618583,75810,291416,367962
1629810618593,75767,291377,367972
1629810618603,75732,291405,367935
1629810618613,75717,291358,367970
1629810618623,75691,291328,367988
1629810618633,75673,291323,367980
1629810618643,75636,291299,367957
1629810618653,75603,291273,367959
1629810618663,75567,291255,367972
1629810618673,75544,291214,367978
1629810618683,75518,291243,367963
1629810618693,75479,291217,367906
1629810618703,75452,291218,367997
1629810618713,75431,291174,367943
1629810618723,75389,291147,367948
1629810618733,75358,291099,367966
1629810618743,75343,291145,367944
1629810618753,75315,291117,367919
1629810618763,75296,291099,367994
1629810618773,75290,291145,367997
1629810618783,75273,291146,368017
1629810618793,75271,291127,368002
1629810618803,75249,291134,368037
1629810618813,75251,291114,368005
1629810618823,75232,291089,368011
1629810618833,75209,291115,368040
1629810618843,75223,291075,368057
1629810618853,75192,291066,368041
1629810618863,75199,291092,368074
1629810618873,75162,291071,368034
1629810618883,75171,291115,368047
1629810618893,75157,291084,368026
1629810618903,75175,291082,368073
1629810618913,75154,291096,368085
1629810618923,75155,291102,368048
1629810618933,75139,291094,368049
1629810618943,75131,291094,368154
1629810618953,75138,291156,368128
1629810618963,75138,291158,368132
1629810618973,75162,291126,368107
1629810618983,75159,291145,368173
1629810618993,75168,291162,368144
1629810619003,75153,291111,368162
1629810619013,75161,291168,368175
1629810619023,75160,291147,368135
1629810619033,75167,291137,368156
1629810619043,75185,291134,368182
1629810619053,75180,291181,368183
1629810619063,75192,291195,368202
1629810619073,75197,291192,368187
1629810619083,75195,291188,368205
1629810619093,75210,291221,368206
1629810619103,75218,291224,368219
1629810619113,75241,291228,368225
1629810619123,75239,291183,368261
1629810619133,75246,291235,368250
1629810619143,75245,291234,368227
1629810619153,75275,291216,368234
1629810619163,75282,291261,368262
1629810619173,75301,291252,368240
1629810619183,75309,291306,368308
1629810619193,75321,291300,368324
1629810619203,75341,291326,368319
1629810619213,75350,291360,368288
1629810619223,75368,291358,368362
1629810619233,75378,291378,368336
1629810619243,75399,291409,368332
1629810619253,75406,291383,368373
1629810619263,75419,291442,368366
1629810619273,75426,291402,368412
1629810619283,75439,291502,368415
1629810619293,75445,291482,368373
1629810619303,75471,291448,368382
1629810619313,75507,291503,368451
1629810619323,75520,291505,368450
1629810619333,75510,291517,368432
1629810619343,75530,291510,368429
1629810619353,75566,291513,368424
1629810619363,75581,291529,368478
1629810619373,75587,291550,368445
1629810619383,75604,291575,368485
1629810619393,75618,291564,368480
1629810619403,75623,291599,368528
1629810619413,75643,291597,368489
1629810619423,75663,291585,368522
1629810619433,75680,291636,368521
1629810619443,75714,291655,368510
1629810619453,75719,291714,368483
1629810619463,75732,291675,368539
1629810619473,75759,291731,368558
1629810619483,75788,291726,368551
1629810619493,75819,291726,368541
1629810619503,75808,291713,368485
1629810619513,75817,291681,368488
1629810619523,75800,291626,368444
1629810619533,75783,291635,368435
1629810619543,75744,291528,368404
1629810619553,75740,291520,368372
1629810619563,75701,291499,368351
1629810619573,75671,291486,368331
1629810619583,75646,291410,368316
1629810619593,75610,291407,368351
1629810619603,75606,291416,368330
1629810619613,75584,291409,368319
1629810619623,75560,291375,368288
1629810619633,75540,291343,368344
1629810619643,75527,291337,368300
1629810619653,75508,291330,368266
1629810619663,75495,291322,368313
1629810619673,75472,291279,368314
1629810619683,75449,291310,368345
1629810619693,75433,291248,368268
1629810619703,75403,291232,368290
1629810619713,75390,291229,368304
1629810619723,75361,291205,368308
1629810619733,75358,291178,368245
1629810619743,75322,291202,368312
1629810619753,75309,291202,368271
1629810619763,75292,291189,368306
1629810619773,75271,291164,368313
1629810619783,75286,291185,368313
1629810619793,75281,291148,368335
1629810619803,75286,291203,368400
1629810619813,75269,291186,368385
1629810619823,75280,291195,368372
1629810619833,75273,291195,368354
1629810619843,75291,291168,368371
1629810619853,75271,291198,368379
1629810619863,75266,291161,368377
1629810619873,75262,291175,368374
1629810619883,75259,291158,368376
1629810619893,75251,291165,368381
1629810619903,75245,291180,368424
1629810619913,75246,291176,368438
1629810619923,75247,291171,368462
1629810619933,75241,291180,368473
1629810619943,75250,291176,368475
1629810619953,75265,291172,368439
1629810619963,75284,291175,368460
1629810619973,75276,291222,368466
1629810619983,75287,291247,368506
1629810619993,75300,291221,368479
1629810620003,75317,291220,368476
1629810620013,75312,291228,368555
1629810620023,75320,291254,368510
1629810620033,75334,291236,368532
1629810620043,75341,291279,368565
1629810620053,75361,291316,368608
1629810620063,75372,291341,368573
1629810620073,75376,291344,368574
1629810620083,75393,291339,368605
1629810620093,75395,291342,368634
1629810620103,75424,291361,368653
1629810620113,75439,291380,368662
1629810620123,75443,291342,368683
1629810620133,75460,291403,368725
1629810620143,75482,291460,368684
1629810620153,75494,291452,368746
1629810620163,75518,291485,368754
1629810620173,75538,291485,368764
1629810620183,75555,291527,368829
1629810620193,75564,291555,368807
1629810620203,75587,291536,368865
1629810620213,75593,291581,368809
1629810620223,75624,291585,368885
1629810620233,75642,291664,368915
1629810620243,75651,291638,368896
1629810620253,75670,291673,368931
1629810620263,75682,291664,368992
1629810620273,75705,291730,368980
1629810620283,75715,291767,368956
1629810620293,75746,291772,369009
1629810620303,75785,291763,368968
1629810620313,75797,291805,368991
1629810620323,75809,291794,369034
1629810620333,75817,291883,369056
1629810620343,75839,291872,369073
1629810620353,75854,291838,369077
1629810620363,75890,291889,369087
1629810620373,75910,291927,369101
1629810620383,75936,291910,369105
1629810620393,75936,291948,369190
1629810620403,75953,291981,369193
1629810620413,75981,291997,369200
1629810620423,76003,292046,369209
1629810620433,76016,292009,369247
1629810620443,76042,292071,369272
1629810620453,76075,292119,369261
1629810620463,76094,292075,369284
1629810620473,76098,292102,369218
1629810620483,76110,292082,369236
1629810620493,76111,292053,369169
1629810620503,76083,292033,369137
1629810620513,76071,292019,369139
1629810620523,76057,291969,369097
1629810620533,76057,291920,369084
1629810620543,76022,291895,369074
1629810620553,76012,291897,369103
1629810620563,76008,291906,369133
1629810620573,75997,291849,369133
1629810620583,75983,291920,369089
1629810620593,75979,291872,369141
1629810620603,75968,291894,369097
1629810620613,75964,291885,369140
1629810620623,75957,291871,369100
1629810620633,75963,291826,369120
1629810620643,75946,291868,369081
1629810620653,75931,291854,369087
1629810620663,75935,291848,369123
1629810620673,75930,291833,369123
1629810620683,75918,291811,369094
1629810620693,75921,291802,369126
1629810620703,75900,291769,369122
1629810620713,75898,291790,369102
1629810620723,75902,291805,369150
1629810620733,75891,291794,369151
1629810620743,75898,291836,369175
1629810620753,75914,291827,369161
1629810620763,75917,291808,369193
1629810620773,75915,291834,369207
1629810620783,75935,291846,369206
1629810620793,75931,291831,369187
1629810620803,75930,291820,369195
1629810620813,75937,291832,369187
1629810620823,75962,291799,369224
1629810620833,75965,291801,369216
1629810620843,75955,291827,369199
1629810620853,75955,291803,369186
1629810620863,75956,291806,369198
1629810620873,75980,291842,369214
1629810620883,75972,291844,369223
1629810620893,75983,291840,369238
1629810620903,75984,291836,369215
1629810620913,75998,291842,369270
1629810620923,76006,291852,369234
1629810620933,76025,291841,369260
1629810620943,76040,291878,369243
1629810620953,76059,291802,369207
1629810620963,76077,291882,369232
1629810620973,76065,291888,369321
1629810620983,76097,291846,369259
1629810620993,76092,291886,369255
1629810621003,76115,291937,369278
1629810621013,76129,291922,369280
1629810621023,76127,291927,369285
1629810621033,76141,291938,369302
1629810621043,76150,291934,369304
1629810621053,76169,291943,369299
1629810621063,76185,291941,369287
1629810621073,76209,291970,369292
1629810621083,76210,291994,369318
1629810621093,76235,291952,369292
1629810621103,76237,291947,369327
1629810621113,76270,291976,369378
1629810621123,76282,292025,369337
1629810621133,76304,292027,369382
1629810621143,76308,292029,369397
1629810621153,76345,292069,369381
1629810621163,76355,292079,369371
1629810621173,76362,292078,369354
1629810621183,76375,292070,369378
1629810621193,76390,292074,369342
1629810621203,76401,292063,369382
1629810621213,76413,292092,369365
1629810621223,76432,292099,369340
1629810621233,76446,292124,369359
1629810621243,76465,292159,369380
1629810621253,76481,292197,369401
1629810621263,76523,292162,369417
1629810621273,76525,292167,369428
1629810621283,76549,292190,369398
1629810621293,76552,292204,369395
1629810621303,76562,292184,369402
1629810621313,76580,292219,369411
1629810621323,76614,292227,369393
1629810621333,76623,292251,369418
1629810621343,76633,292220,369378
1629810621353,76630,292232,369385
1629810621363,76627,292175,369359
1629810621373,76644,292166,369328
1629810621383,76635,292136,369310
1629810621393,76610,292062,369268
1629810621403,76592,292062,369221
1629810621413,76583,292021,369243
1629810621423,76600,292006,369203
1629810621433,76575,291922,369232
1629810621443,76558,291951,369195
1629810621453,76550,291982,369187
1629810621463,76559,291900,369181
1629810621473,76536,291950,369180
1629810621483,76537,291942,369170
1629810621493,76526,291930,369149
1629810621503,76530,291869,369157
1629810621513,76519,291882,369136
1629810621523,76506,291858,369087
1629810621533,76497,291881,369093
1629810621543,76487,291840,369094
1629810621553,76487,291797,369100
1629810621563,76478,291831,369094
1629810621573,76476,291784,369083
1629810621583,76495,291777,369094
1629810621593,76465,291763,369086
1629810621603,76467,291794,369112
1629810621613,76484,291798,369121
1629810621623,76487,291815,369111
1629810621633,76500,291831,369138
1629810621643,76503,291797,369144
1629810621653,76520,291803,369148
1629810621663,76514,291828,369069
1629810621673,76524,291786,369139
1629810621683,76525,291789,369115
1629810621693,76533,291789,369128
1629810621703,76539,291828,369099
1629810621713,76545,291840,369098
1629810621723,76545,291809,369060
1629810621733,76561,291771,369128
1629810621743,76573,291814,369078
1629810621753,76563,291771,369126
1629810621763,76584,291798,369155
1629810621773,76585,291800,369130
1629810621783,76606,291819,369161
1629810621793,76625,291804,369112
1629810621803,76627,291845,369121
1629810621813,76634,291849,369098
1629810621823,76637,291868,369110
1629810621833,76656,291839,369129
1629810621843,76661,291856,369143
1629810621853,76675,291881,369139
1629810621863,76700,291849,369110
1629810621873,76706,291886,369133
1629810621883,76707,291888,369098
1629810621893,76723,291896,369092
1629810621903,76744,291910,369079
1629810621913,76738,291881,369145
1629810621923,76773,291917,369089
1629810621933,76781,291899,369133
1629810621943,76785,291947,369108
1629810621953,76812,291918,369136
1629810621963,76824,291971,369168
1629810621973,76854,291928,369152
1629810621983,76845,291947,369155
1629810621993,76860,291971,369163
1629810622003,76875,291996,369170
1629810622013,76894,291972,369158
1629810622023,76903,292001,369139
1629810622033,76919,291991,369151
1629810622043,76946,292018,369157
1629810622053,76964,292050,369173
1629810622063,76994,292028,369168
1629810622073,76991,292057,369150
1629810622083,77005,292087,369176
1629810622093,77031,292041,369224
1629810622103,77037,292068,369182
1629810622113,77057,292092,369129
1629810622123,77062,292096,369183
1629810622133,77084,292091,369152
1629810622143,77097,292111,369175
1629810622153,77097,292132,369166
1629810622163,77128,292119,369159
1629810622173,77142,292156,369191
1629810622183,77156,292160,369218
1629810622193,77182,292200,369200
1629810622203,77200,292183,369207
1629810622213,77204,292229,369144
1629810622223,77207,292164,369112
1629810622233,77191,292141,369125
1629810622243,77191,292122,369063
1629810622253,77172,292051,369004
1629810622263,77156,291964,368975
1629810622273,77139,291967,368971
1629810622283,77143,291946,368981
1629810622293,77134,291909,368975
1629810622303,77128,291930,368973
1629810622313,77115,291897,368981
1629810622323,77116,291886,368967
1629810622333,77106,291910,368990
1629810622343,77093,291876,368950
1629810622353,77096,291845,368942
1629810622363,77100,291898,368924
1629810622373,77100,291829,368893
1629810622383,77107,291812,368939
1629810622393,77083,291829,368888
1629810622403,77088,291784,368914
1629810622413,77064,291760,368895
1629810622423,77070,291723,368885
1629810622433,77060,291714,368899
1629810622443,77061,291681,368877
1629810622453,77055,291658,368874
1629810622463,77041,291706,368897
1629810622473,77046,291699,368855
1629810622483,77025,291657,368858
1629810622493,77032,291667,368865
1629810622503,77033,291666,368849
1629810622513,77048,291685,368911
1629810622523,77052,291683,368921
1629810622533,77058,291644,368890
1629810622543,77072,291644,368908
1629810622553,77082,291652,368854
1629810622563,77083,291686,368851
1629810622573,77095,291655,368904
1629810622583,77087,291660,368882
1629810622593,77095,291629,368876
1629810622603,77098,291658,368838
1629810622613,77100,291595,368838
1629810622623,77112,291589,368869
1629810622633,77095,291614,368838
1629810622643,77094,291633,368856
1629810622653,77110,291646,368822
1629810622663,77123,291628,368859
1629810622673,77125,291610,368843
1629810622683,77136,291621,368805
1629810622693,77149,291609,368846
1629810622703,77183,291630,368831
1629810622713,77174,291638,368874
1629810622723,77178,291611,368824
1629810622733,77187,291599,368850
1629810622743,77227,291648,368827
1629810622753,77217,291692,368835
1629810622763,77228,291666,368863
1629810622773,77245,291674,368821
1629810622783,77254,291710,368867
1629810622793,77245,291696,368848
1629810622803,77257,291678,368850
1629810622813,77270,291704,368839
1629810622823,77287,291701,368811
1629810622833,77294,291706,368826
1629810622843,77311,291768,368846
1629810622853,77334,291715,368872
1629810622863,77354,291767,368859
1629810622873,77358,291756,368876
1629810622883,77370,291775,368891
1629810622893,77393,291765,368840
1629810622903,77396,291797,368871
1629810622913,77413,291796,368858
1629810622923,77438,291820,368886
1629810622933,77438,291820,368858
1629810622943,77442,291804,368883
1629810622953,77463,291821,368904
1629810622963,77484,291838,368875
1629810622973,77490,291855,368863
1629810622983,77502,291884,368887
1629810622993,77524,291894,368920
1629810623003,77539,291824,368911
1629810623013,77547,291853,368896
1629810623023,77571,291897,368892
1629810623033,77587,291868,368906
1629810623043,77575,291891,368864
1629810623053,77591,291921,368852
1629810623063,77620,291923,368857
1629810623073,77653,291939,368884
1629810623083,77649,291933,368881
1629810623093,77653,291954,368890
1629810623103,77675,291924,368860
1629810623113,77690,291973,368876
1629810623123,77709,291995,368882
1629810623133,77713,292004,368861
1629810623143,77739,292025,368886
1629810623153,77750,292032,368868
1629810623163,77774,292025,368878
1629810623173,77785,292041,368847
1629810623183,77807,292018,368909
1629810623193,77805,291958,368785
1629810623203,77779,291963,368777
1629810623213,77768,291964,368732
1629810623223,77764,291881,368695
1629810623233,77765,291889,368734
1629810623243,77746,291836,368667
1629810623253,77738,291789,368685
1629810623263,77726,291791,368653
1629810623273,77712,291765,368622
1629810623283,77724,291720,368615
1629810623293,77703,291736,368639
1629810623303,77693,291734,368599
1629810623313,77693,291714,368603
1629810623323,77673,291718,368616
1629810623333,77667,291689,368562
1629810623343,77682,291700,368520
1629810623353,77666,291629,368586
1629810623363,77659,291604,368544
1629810623373,77644,291561,368594
1629810623383,77630,291574,368565
1629810623393,77636,291548,368473
1629810623403,77616,291517,368549
1629810623413,77601,291493,368472
1629810623423,77600,291530,368486
1629810623433,77582,291507,368453
1629810623443,77560,291438,368448
1629810623453,77561,291446,368485
1629810623463,77546,291479,368485
1629810623473,77547,291458,368447
1629810623483,77539,291455,368479
1629810623493,77553,291518,368450
1629810623503,77575,291475,368514
1629810623513,77570,291532,368474
1629810623523,77567,291476,368465
1629810623533,77554,291501,368483
1629810623543,77549,291450,368475
1629810623553,77568,291490,368435
1629810623563,77553,291473,368476
1629810623573,77553,291487,368486
1629810623583,77564,291487,368492
1629810623593,77562,291453,368482
1629810623603,77566,291467,368472
1629810623613,77574,291523,368460
1629810623623,77570,291471,368490
1629810623633,77567,291474,368476
1629810623643,77577,291529,368471
1629810623653,77592,291492,368511
1629810623663,77599,291484,368503
1629810623673,77621,291513,368500
1629810623683,77609,291552,368509
1629810623693,77633,291498,368479
1629810623703,77629,291570,368480
1629810623713,77643,291539,368473
1629810623723,77653,291542,368513
1629810623733,77651,291526,368497
1629810623743,77665,291536,368516
1629810623753,77675,291577,368534
1629810623763,77681,291598,368556
1629810623773,77690,291619,368514
1629810623783,77695,291592,368572
1629810623793,77722,291628,368538
1629810623803,77727,291632,368532
1629810623813,77745,291625,368565
1629810623823,77751,291639,368537
1629810623833,77768,291645,368557
1629810623843,77775,291671,368567
1629810623853,77785,291671,368544
1629810623863,77827,291675,368537
1629810623873,77815,291713,368551
1629810623883,77822,291693,368568
1629810623893,77840,291671,368604
1629810623903,77852,291713,368619
1629810623913,77866,291750,368631
1629810623923,77862,291723,368602
1629810623933,77881,291763,368609
1629810623943,77891,291768,368602
1629810623953,77919,291789,368604
1629810623963,77940,291838,368629
1629810623973,77949,291830,368648
1629810623983,77962,291840,368686
1629810623993,77990,291931,368709
1629810624003,77989,291846,368699
1629810624013,77993,291893,368708
1629810624023,78042,291946,368706
1629810624033,78050,291946,368690
1629810624043,78050,291948,368727
1629810624053,78060,291936,368707
1629810624063,78076,291965,368720
1629810624073,78090,292005,368715
1629810624083,78117,292023,368746
1629810624093,78129,292030,368759
1629810624103,78143,292030,368709
1629810624113,78165,292035,368762
1629810624123,78172,292011,368763
1629810624133,78192,292079,368756
1629810624143,78197,292067,368763
1629810624153,78211,292084,368737
1629810624163,78255,292090,368795
1629810624173,78256,292106,368771
1629810624183,78264,292123,368805
1629810624193,78300,292173,368788
1629810624203,78323,292169,368814
1629810624213,78321,292184,368827
1629810624223,78339,292232,368810
1629810624233,78350,292180,368803
1629810624243,78344,292165,368753
1629810624253,78340,292162,368731
1629810624263,78330,292100,368751
1629810624273,78316,292118,368693
1629810624283,78314,292078,368648
1629810624293,78292,292008,368637
1629810624303,78278,292042,368640
1629810624313,78272,291979,368623
1629810624323,78254,291974,368622
1629810624333,78260,291941,368625
1629810624343,78214,291946,368619
1629810624353,78239,291930,368603
1629810624363,78223,291927,368641
1629810624373,78219,291971,368596
1629810624383,78210,291896,368604
1629810624393,78190,291887,368616
1629810624403,78172,291854,368567
1629810624413,78155,291838,368553
1629810624423,78148,291849,368590
1629810624433,78128,291811,368579
1629810624443,78136,291802,368572
1629810624453,78097,291807,368573
1629810624463,78097,291787,368600
1629810624473,78068,291777,368545
1629810624483,78061,291778,368564
1629810624493,78046,291738,368565
1629810624503,78045,291747,368566
1629810624513,78032,291693,368566
1629810624523,78020,291701,368553
1629810624533,78009,291712,368521
1629810624543,78010,291764,368580
1629810624553,78001,291718,368587
1629810624563,78008,291722,368602
1629810624573,77978,291690,368567
1629810624583,77987,291682,368561
1629810624593,77983,291706,368579
1629810624603,77976,291689,368572
1629810624613,77970,291691,368561
1629810624623,77956,291700,368570
1629810624633,77958,291699,368593
1629810624643,77949,291692,368560
1629810624653,77944,291707,368550
1629810624663,77949,291697,368541
1629810624673,77957,291643,368594
1629810624683,77940,291699,368568
1629810624693,77950,291678,368568
1629810624703,77949,291663,368606
1629810624713,77949,291718,368573
1629810624723,77943,291711,368617
1629810624733,77952,291695,368590
1629810624743,77961,291716,368611
1629810624753,77951,291705,368573
1629810624763,77971,291725,368635
1629810624773,77956,291741,368594
1629810624783,77970,291730,368611
1629810624793,77978,291740,368609
1629810624803,77979,291753,368622
1629810624813,77980,291741,368638
1629810624823,77997,291743,368684
1629810624833,78008,291751,368631
1629810624843,78009,291803,368627
1629810624853,78007,291767,368631
1629810624863,78020,291804,368642
1629810624873,78023,291815,368650
1629810624883,78024,291829,368651
1629810624893,78041,291841,368714
1629810624903,78052,291827,368646
1629810624913,78061,291830,368652
1629810624923,78055,291872,368695
1629810624933,78075,291924,368670
1629810624943,78083,291890,368680
1629810624953,78087,291922,368686
1629810624963,78119,291911,368727
1629810624973,78116,291902,368699
1629810624983,78140,291928,368685
1629810624993,78124,291912,368734
1629810625003,78148,291960,368695
1629810625013,78154,291975,368729
1629810625023,78175,291957,368754
1629810625033,78198,292019,368749
1629810625043,78198,291983,368773
1629810625053,78206,291985,368762
1629810625063,78215,292034,368744
1629810625073,78219,292071,368749
1629810625083,78238,292076,368683
1629810625093,78255,292065,368732
1629810625103,78271,292089,368700
1629810625113,78286,292064,368766
1629810625123,78292,292070,368722
1629810625133,78308,292074,368827
1629810625143,78330,292139,368766
1629810625153,78327,292160,368757
1629810625163,78357,292200,368811
1629810625173,78367,292149,368785
1629810625183,78357,292190,368811
1629810625193,78392,292192,368798
1629810625203,78396,292210,368811
1629810625213,78388,292224,368780
1629810625223,78422,292247,368810
1629810625233,78433,292282,368868
1629810625243,78446,292285,368832
1629810625253,78477,292279,368830
1629810625263,78497,292318,368843
1629810625273,78502,292285,368811
1629810625283,78512,292312,368834
1629810625293,78510,292318,368833
1629810625303,78510,292290,368791
1629810625313,78508,292284,368832
1629810625323,78494,292207,368756
1629810625333,78484,292187,368691
1629810625343,78457,292172,368673
1629810625353,78435,292127,368672
1629810625363,78411,292079,368641
1629810625373,78393,292064,368673
1629810625383,78376,292048,368636
1629810625393,78355,292039,368657
1629810625403,78346,292003,368642
1629810625413,78325,291987,368632
1629810625423,78309,292023,368627
1629810625433,78285,291973,368630
1629810625443,78271,291982,368613
1629810625453,78246,291915,368614
1629810625463,78234,291913,368622
1629810625473,78197,291896,368635
1629810625483,78171,291893,368586
1629810625493,78145,291837,368588
1629810625503,78115,291835,368542
1629810625513,78097,291801,368533
1629810625523,78065,291777,368553
1629810625533,78034,291757,368553
1629810625543,78015,291772,368539
1629810625553,77995,291736,368531
1629810625563,77967,291744,368547
1629810625573,77940,291734,368565
1629810625583,77930,291732,368559
1629810625593,77914,291770,368556
1629810625603,77900,291704,368573
1629810625613,77888,291740,368573
1629810625623,77868,291718,368532
1629810625633,77877,291717,368565
1629810625643,77857,291677,368532
1629810625653,77821,291691,368546
1629810625663,77813,291734,368544
1629810625673,77816,291683,368542
1629810625683,77792,291697,368537
1629810625693,77786,291641,368555
1629810625703,77764,291712,368613
1629810625713,77761,291689,368583
1629810625723,77750,291648,368585
1629810625733,77739,291654,368550
1629810625743,77724,291676,368612
1629810625753,77722,291677,368562
1629810625763,77711,291662,368570
1629810625773,77719,291716,368590
1629810625783,77702,291682,368593
1629810625793,77722,291701,368629
1629810625803,77711,291742,368599
1629810625813,77721,291734,368621
1629810625823,77724,291706,368654
1629810625833,77708,291725,368560
1629810625843,77717,291684,368616
1629810625853,77709,291701,368628
1629810625863,77713,291738,368619
1629810625873,77708,291721,368628
1629810625883,77697,291734,368630
1629810625893,77696,291744,368630
1629810625903,77709,291770,368632
1629810625913,77705,291742,368619
1629810625923,77699,291755,368638
1629810625933,77703,291785,368655
1629810625943,77731,291754,368657
1629810625953,77734,291774,368630
1629810625963,77745,291766,368648
1629810625973,77749,291826,368651
1629810625983,77741,291819,368684
1629810625993,77750,291831,368685
1629810626003,77762,291824,368736
1629810626013,77757,291836,368676
1629810626023,77778,291876,368703
1629810626033,77766,291898,368696
1629810626043,77775,291904,368717
1629810626053,77785,291882,368716
1629810626063,77803,291901,368719
1629810626073,77795,291914,368733
1629810626083,77813,291925,368691
1629810626093,77819,291940,368742
1629810626103,77831,291956,368729
1629810626113,77842,291957,368729
1629810626123,77846,292013,368767
1629810626133,77853,291991,368730
1629810626143,77873,292021,368792
1629810626153,77875,291999,368738
1629810626163,77890,292025,368771
1629810626173,77899,292034,368756
1629810626183,77908,292027,368791
1629810626193,77919,292030,368788
1629810626203,77926,292083,368778
1629810626213,77938,292070,368824
1629810626223,77955,292119,368797
1629810626233,77970,292108,368796
1629810626243,77971,292137,368817
1629810626253,77988,292174,368770
1629810626263,78000,292196,368796
1629810626273,78010,292163,368796
1629810626283,78021,292188,368831
1629810626293,78037,292196,368848
1629810626303,78047,292152,368851
1629810626313,78056,292189,368802
1629810626323,78057,292218,368779
1629810626333,78038,292129,368751
1629810626343,78017,292114,368738
1629810626353,77983,292075,368717
1629810626363,77957,292004,368686
1629810626373,77916,291985,368674
1629810626383,77882,291931,368661
1629810626393,77842,291931,368638
1629810626403,77820,291876,368650
1629810626413,77785,291893,368657
1629810626423,77767,291877,368683
1629810626433,77739,291850,368640
1629810626443,77731,291842,368651
1629810626453,77708,291857,368643
1629810626463,77688,291852,368640
1629810626473,77656,291810,368648
1629810626483,77634,291798,368645
1629810626493,77589,291778,368612
1629810626503,77576,291720,368638
1629810626513,77546,291709,368612
1629810626523,77510,291716,368607
1629810626533,77477,291716,368572
1629810626543,77449,291692,368609
1629810626553,77420,291676,368618
1629810626563,77391,291637,368612
1629810626573,77370,291642,368605
1629810626583,77361,291607,368624
1629810626593,77339,291653,368698
1629810626603,77320,291633,368628
1629810626613,77320,291643,368640
1629810626623,77320,291615,368600
1629810626633,77272,291675,368623
1629810626643,77256,291619,368659
1629810626653,77265,291571,368670
1629810626663,77249,291644,368635
1629810626673,77227,291578,368623
1629810626683,77206,291615,368629
1629810626693,77192,291586,368640
1629810626703,77177,291591,368676
1629810626713,77174,291565,368636
1629810626723,77151,291573,368641
1629810626733,77157,291624,368651
1629810626743,77132,291571,368664
1629810626753,77134,291567,368635
1629810626763,77120,291616,368677
1629810626773,77132,291599,368673
1629810626783,77119,291632,368655
1629810626793,77133,291586,368704
1629810626803,77113,291567,368666
1629810626813,77119,291636,368684
1629810626823,77122,291657,368733
1629810626833,77106,291618,368725
1629810626843,77116,291638,368724
1629810626853,77121,291625,368720
1629810626863,77122,291658,368723
1629810626873,77106,291614,368726
1629810626883,77114,291662,368745
1629810626893,77114,291646,368723
1629810626903,77119,291676,368709
1629810626913,77110,291636,368745
1629810626923,77155,291698,368734
1629810626933,77135,291686,368770
1629810626943,77148,291705,368798
1629810626953,77145,291722,368829
1629810626963,77153,291726,368809
1629810626973,77157,291767,368776
1629810626983,77158,291765,368800
1629810626993,77175,291742,368780
1629810627003,77182,291796,368784
1629810627013,77165,291775,368805
1629810627023,77189,291773,368796
1629810627033,77181,291796,368800
1629810627043,77197,291809,368814
1629810627053,77202,291852,368825
1629810627063,77211,291811,368862
1629810627073,77207,291867,368812
1629810627083,77236,291881,368837
1629810627093,77253,291827,368829
1629810627103,77254,291901,368835
1629810627113,77263,291927,368860
1629810627123,77261,291851,368848
1629810627133,77284,291906,368873
1629810627143,77290,291913,368876
1629810627153,77300,291946,368839
1629810627163,77315,291945,368893
1629810627173,77317,291943,368897
1629810627183,77330,291974,368884
1629810627193,77339,291978,368875
1629810627203,77351,292015,368881
1629810627213,77360,291982,368908
1629810627223,77378,292045,368927
1629810627233,77383,292071,368913
1629810627243,77415,292102,368923
1629810627253,77430,292068,368903
1629810627263,77433,292124,368934
1629810627273,77428,292091,368889
1629810627283,77439,292047,368882
1629810627293,77423,292003,368821
1629810627303,77389,291929,368821
1629810627313,77355,291981,368794
1629810627323,77322,291893,368775
1629810627333,77273,291871,368763
1629810627343,77237,291803,368723
1629810627353,77209,291811,368741
1629810627363,77189,291738,368727
1629810627373,77136,291743,368757
1629810627383,77107,291743,368764
1629810627393,77113,291756,368742
1629810627403,77058,291712,368711
1629810627413,77034,291699,368721
1629810627423,77005,291690,368707
1629810627433,76977,291611,368726
1629810627443,76916,291585,368729
1629810627453,76899,291587,368725
1629810627463,76870,291541,368677
1629810627473,76829,291561,368698
1629810627483,76799,291521,368637
1629810627493,76754,291508,368686
1629810627503,76728,291483,368693
1629810627513,76694,291471,368682
1629810627523,76669,291415,368672
1629810627533,76633,291441,368706
1629810627543,76613,291406,368689
1629810627553,76607,291397,368711
1629810627563,76598,291427,368723
1629810627573,76573,291426,368772
1629810627583,76575,291430,368746
1629810627593,76554,291425,368755
1629810627603,76547,291428,368721
1629810627613,76523,291406,368725
1629810627623,76509,291397,368775
1629810627633,76490,291365,368710
1629810627643,76486,291403,368744
1629810627653,76467,291365,368733
1629810627663,76459,291382,368770
1629810627673,76429,291376,368773
1629810627683,76425,291389,368780
1629810627693,76422,291408,368780
1629810627703,76400,291357,368784
1629810627713,76397,291389,368785
1629810627723,76395,291426,368797
1629810627733,76392,291416,368810
1629810627743,76387,291429,368789
1629810627753,76410,291432,368817
1629810627763,76401,291438,368828
1629810627773,76400,291444,368853
1629810627783,76398,291465,368843
1629810627793,76414,291430,368842
1629810627803,76407,291391,368881
1629810627813,76417,291485,368843
1629810627823,76410,291441,368881
1629810627833,76401,291455,368895
1629810627843,76413,291467,368907
1629810627853,76422,291489,368917
1629810627863,76431,291488,368886
1629810627873,76421,291474,368911
1629810627883,76420,291525,368925
1629810627893,76444,291528,368895
1629810627903,76446,291528,368954
1629810627913,76444,291555,368956
1629810627923,76454,291512,368956
1629810627933,76471,291548,368950
1629810627943,76479,291594,368950
1629810627953,76517,291619,368959
1629810627963,76500,291607,368997
1629810627973,76512,291583,368991
1629810627983,76519,291631,368968
1629810627993,76536,291649,369019
1629810628003,76539,291655,368999
1629810628013,76552,291669,369014
1629810628023,76561,291661,369044
1629810628033,76568,291709,369046
1629810628043,76593,291734,369034
1629810628053,76604,291724,369020
1629810628063,76626,291742,369037
1629810628073,76610,291731,369102
1629810628083,76634,291789,369065
1629810628093,76647,291804,369061
1629810628103,76667,291782,369075
1629810628113,76672,291792,369075
1629810628123,76686,291781,369101
1629810628133,76694,291749,369121
1629810628143,76706,291843,369131
1629810628153,76717,291858,369113
1629810628163,76732,291862,369140
1629810628173,76742,291879,369085
1629810628183,76759,291859,369149
1629810628193,76761,291884,369137
1629810628203,76790,291918,369199
1629810628213,76800,291941,369143
1629810628223,76825,291929,369189
1629810628233,76830,291986,369146
1629810628243,76842,291946,369216
1629810628253,76876,291991,369194
1629810628263,76877,292039,369203
1629810628273,76905,292035,369250
1629810628283,76925,292045,369245
1629810628293,76941,292067,369251
1629810628303,76951,292076,369218
1629810628313,76952,292038,369219
1629810628323,76968,292029,369184
1629810628333,76958,292039,369177
1629810628343,76934,291979,369167
1629810628353,76913,291955,369112
1629810628363,76886,291870,369113
1629810628373,76844,291863,369038
1629810628383,76804,291787,369043
1629810628393,76781,291775,369045
1629810628403,76763,291780,369046
1629810628413,76715,291712,369023
1629810628423,76688,291750,369051
1629810628433,76650,291738,369031
1629810628443,76618,291722,369016
1629810628453,76600,291696,369009
1629810628463,76579,291681,369025
1629810628473,76548,291642,369038
1629810628483,76507,291606,369009
1629810628493,76479,291575,369019
1629810628503,76454,291552,369011
1629810628513,76411,291524,368993
1629810628523,76389,291519,368986
1629810628533,76395,291544,368982
1629810628543,76353,291500,369002
1629810628553,76316,291497,369006
1629810628563,76288,291439,369002
1629810628573,76274,291464,368973
1629810628583,76242,291444,369002
1629810628593,76230,291473,369039
1629810628603,76209,291415,369020
1629810628613,76190,291434,369057
1629810628623,76172,291408,369060
1629810628633,76161,291430,369056
1629810628643,76157,291415,369021
1629810628653,76143,291445,369077
1629810628663,76140,291426,369065
1629810628673,76127,291414,369048
1629810628683,76124,291397,369054
1629810628693,76111,291417,369068
1629810628703,76088,291383,369090
1629810628713,76103,291427,369122
1629810628723,76099,291419,369080
1629810628733,76087,291444,369068
1629810628743,76080,291403,369112
1629810628753,76081,291430,369130
1629810628763,76077,291403,369126
1629810628773,76085,291424,369142
1629810628783,76076,291408,369136
1629810628793,76079,291442,369158
1629810628803,76064,291445,369198
1629810628813,76071,291435,369191
1629810628823,76071,291480,369173
1629810628833,76077,291447,369187
1629810628843,76090,291444,369255
1629810628853,76102,291520,369207
1629810628863,76124,291472,369225
1629810628873,76106,291513,369229
1629810628883,76133,291536,369245
1629810628893,76149,291498,369232
1629810628903,76145,291525,369259
1629810628913,76146,291518,369242
1629810628923,76157,291523,369207
1629810628933,76167,291561,369264
1629810628943,76171,291590,369258
1629810628953,76172,291516,369278
1629810628963,76188,291587,369251
1629810628973,76192,291599,369309
1629810628983,76207,291581,369315
1629810628993,76234,291625,369326
1629810629003,76243,291652,369346
1629810629013,76238,291636,369369
1629810629023,76270,291631,369373
1629810629033,76288,291656,369395
1629810629043,76284,291706,369379
1629810629053,76311,291661,369395
1629810629063,76317,291719,369336
1629810629073,76334,291752,369384
1629810629083,76346,291707,369422
1629810629093,76360,291720,369419
1629810629103,76362,291777,369419
1629810629113,76367,291761,369425
1629810629123,76404,291802,369413
1629810629133,76409,291817,369426
1629810629143,76418,291806,369426
1629810629153,76432,291841,369422
1629810629163,76446,291861,369471
1629810629173,76466,291822,369421
1629810629183,76503,291882,369456
1629810629193,76502,291919,369524
1629810629203,76525,291886,369486
1629810629213,76544,291909,369500
1629810629223,76553,291925,369484
1629810629233,76573,291957,369537
1629810629243,76588,291909,369518
1629810629253,76605,291976,369548
1629810629263,76611,292016,369538
1629810629273,76646,291982,369537
1629810629283,76652,292031,369543
1629810629293,76658,292044,369562
1629810629303,76672,292065,369561
1629810629313,76684,292062,369540
1629810629323,76711,292078,369616
1629810629333,76725,292105,369534
1629810629343,76761,292118,369579
1629810629353,76781,292174,369614
1629810629363,76799,292135,369589
1629810629373,76821,292164,369598
1629810629383,76805,292160,369558
1629810629393,76816,292106,369566
1629810629403,76784,292027,369521
1629810629413,76771,292030,369518
1629810629423,76738,291995,369494
1629810629433,76706,291973,369475
1629810629443,76689,291901,369470
1629810629453,76641,291885,369442
1629810629463,76625,291878,369491
1629810629473,76584,291821,369442
1629810629483,76558,291824,369400
1629810629493,76559,291841,369423
1629810629503,76548,291780,369427
1629810629513,76528,291811,369446
1629810629523,76491,291797,369427
1629810629533,76459,291748,369420
1629810629543,76444,291726,369393
1629810629553,76419,291746,369362
1629810629563,76409,291705,369443
1629810629573,76378,291686,369408
1629810629583,76360,291643,369386
1629810629593,76336,291628,369393
1629810629603,76311,291616,369361
1629810629613,76284,291619,369402
1629810629623,76261,291579,369385
1629810629633,76244,291592,369404
1629810629643,76231,291567,369361
1629810629653,76224,291564,369417
1629810629663,76206,291573,369401
1629810629673,76200,291579,369454
1629810629683,76217,291582,369464
1629810629693,76197,291588,369443
1629810629703,76208,291581,369474
1629810629713,76186,291552,369424
1629810629723,76186,291602,369440
1629810629733,76177,291569,369459
1629810629743,76186,291541,369488
1629810629753,76171,291604,369467
1629810629763,76166,291540,369425
1629810629773,76154,291550,369474
1629810629783,76165,291572,369516
1629810629793,76158,291556,369486
1629810629803,76155,291575,369502
1629810629813,76157,291583,369512
1629810629823,76143,291567,369477
1629810629833,76159,291542,369511
1629810629843,76158,291572,369538
1629810629853,76169,291591,369523
1629810629863,76184,291602,369566
1629810629873,76189,291619,369550
1629810629883,76180,291619,369601
1629810629893,76199,291647,369592
1629810629903,76193,291605,369574
1629810629913,76205,291671,369615
1629810629923,76205,291664,369594
1629810629933,76216,291701,369648
1629810629943,76230,291730,369618
1629810629953,76245,291668,369660
1629810629963,76239,291744,369668
1629810629973,76258,291719,369662
1629810629983,76267,291693,369645
1629810629993,76275,291757,369676
1629810630003,76290,291758,369686
1629810630013,76309,291776,369765
1629810630023,76319,291760,369686
1629810630033,76319,291766,369718
1629810630043,76336,291826,369727
1629810630053,76355,291825,369708
1629810630063,76368,291825,369749
1629810630073,76386,291845,369755
1629810630083,76398,291867,369781
1629810630093,76408,291880,369831
1629810630103,76411,291877,369809
1629810630113,76427,291883,369830
1629810630123,76437,291897,369830
1629810630133,76450,291911,369822
1629810630143,76462,291919,369860
1629810630153,76497,291966,369843
1629810630163,76523,291964,369876
1629810630173,76522,292018,369844
1629810630183,76531,292023,369880
1629810630193,76555,292003,369913
1629810630203,76590,292036,369864
1629810630213,76577,292010,369886
1629810630223,76596,292094,369951
1629810630233,76616,292095,369955
1629810630243,76623,292130,369927
1629810630253,76638,292125,369997
1629810630263,76656,292154,369951
1629810630273,76679,292149,369973
1629810630283,76687,292143,369984
1629810630293,76712,292218,369997
1629810630303,76720,292195,369972
1629810630313,76745,292163,369977
1629810630323,76740,292214,369970
1629810630333,76782,292231,369989
1629810630343,76792,292243,369986
1629810630353,76814,292290,370025
1629810630363,76841,292275,370017
1629810630373,76847,292284,369987
1629810630383,76875,292312,370057
1629810630393,76876,292366,370061
1629810630403,76892,292364,370056
1629810630413,76912,292351,370090
1629810630423,76935,292409,370088
1629810630433,76953,292380,370093
1629810630443,76970,292394,370049
1629810630453,76947,292349,370052
1629810630463,76941,292339,370013
1629810630473,76932,292304,369999
1629810630483,76903,292281,369956
1629810630493,76876,292220,369993
1629810630503,76883,292184,369952
1629810630513,76844,292190,369942
1629810630523,76826,292181,369921
1629810630533,76800,292118,369935
1629810630543,76773,292140,369918
1629810630553,76767,292135,369937
1629810630563,76741,292116,369945
1629810630573,76749,292099,369966
1629810630583,76730,292112,369890
1629810630593,76722,292067,369944
1629810630603,76695,292035,369889
1629810630613,76681,292051,369903
1629810630623,76660,292008,369907
1629810630633,76663,292009,369957
1629810630643,76637,291973,369888
1629810630653,76630,291938,369914
1629810630663,76610,291903,369902
1629810630673,76602,291968,369927
1629810630683,76583,291993,369898
1629810630693,76571,291959,369919
1629810630703,76552,291945,369907
1629810630713,76559,291952,369957
1629810630723,76547,291929,369942
1629810630733,76541,291964,369972
1629810630743,76544,291962,369953
1629810630753,76542,291972,369998
1629810630763,76543,291952,369962
1629810630773,76540,291950,369957
1629810630783,76535,291919,369944
1629810630793,76526,291962,369961
1629810630803,76549,291977,369937
1629810630813,76558,291964,369983
1629810630823,76511,291940,369977
1629810630833,76541,291983,370016
1629810630843,76547,291919,369958
1629810630853,76550,291962,370000
1629810630863,76558,291976,370036
1629810630873,76545,291966,370016
1629810630883,76564,291992,370034
1629810630893,76563,291954,370018
1629810630903,76554,292003,370052
1629810630913,76562,291998,370095
1629810630923,76572,291969,370068
1629810630933,76578,292000,370073
1629810630943,76585,292013,370087
1629810630953,76606,291965,370097
1629810630963,76602,292022,370125
1629810630973,76626,292085,370089
1629810630983,76629,292037,370088
1629810630993,76639,292086,370126
1629810631003,76646,292062,370118
1629810631013,76665,292068,370154
1629810631023,76676,292105,370129
1629810631033,76674,292052,370125
1629810631043,76699,292120,370178
1629810631053,76699,292137,370159
1629810631063,76718,292135,370149
1629810631073,76732,292129,370204
1629810631083,76749,292133,370175
1629810631093,76752,292163,370144
1629810631103,76761,292176,370190
1629810631113,76776,292185,370236
1629810631123,76807,292183,370194
1629810631133,76814,292214,370220
1629810631143,76824,292202,370202
1629810631153,76819,292243,370234
1629810631163,76856,292250,370244
1629810631173,76864,292260,370278
1629810631183,76888,292276,370264
1629810631193,76890,292301,370270
1629810631203,76926,292262,370293
1629810631213,76921,292321,370333
1629810631223,76932,292291,370315
1629810631233,76948,292303,370273
1629810631243,76979,292328,370313
1629810631253,76987,292385,370311
1629810631263,76987,292380,370293
1629810631273,77005,292405,370322
1629810631283,77009,292398,370303
1629810631293,77050,292395,370374
1629810631303,77046,292405,370322
1629810631313,77081,292468,370360
1629810631323,77099,292464,370377
1629810631333,77107,292487,370340
1629810631343,77136,292446,370366
1629810631353,77148,292540,370400
1629810631363,77175,292493,370377
1629810631373,77174,292523,370385
1629810631383,77196,292557,370402
1629810631393,77220,292527,370369
1629810631403,77223,292554,370397
1629810631413,77224,292554,370391
1629810631423,77212,292480,370331
1629810631433,77193,292474,370270
1629810631443,77198,292401,370274
1629810631453,77158,292378,370263
1629810631463,77152,292364,370212
1629810631473,77131,292358,370203
1629810631483,77098,292315,370228
1629810631493,77092,292282,370210
1629810631503,77069,292305,370191
1629810631513,77054,292223,370201
1629810631523,77054,292235,370202
1629810631533,77029,292233,370212
1629810631543,77024,292250,370167
1629810631553,76997,292215,370210
1629810631563,76987,292182,370190
1629810631573,76984,292247,370175
1629810631583,76973,292169,370204
1629810631593,76951,292139,370180
1629810631603,76949,292159,370181
1629810631613,76919,292165,370197
1629810631623,76918,292118,370212
1629810631633,76895,292104,370166
1629810631643,76896,292116,370189
1629810631653,76879,292063,370214
1629810631663,76875,292087,370175
1629810631673,76867,292067,370209
1629810631683,76872,292095,370243
1629810631693,76879,292095,370260
1629810631703,76866,292088,370243
1629810631713,76862,292094,370232
1629810631723,76872,292095,370196
1629810631733,76874,292109,370209
1629810631743,76871,292088,370264
1629810631753,76873,292075,370260
1629810631763,76873,292129,370245
1629810631773,76898,292086,370259
1629810631783,76894,292052,370233
1629810631793,76893,292061,370251
1629810631803,76899,292093,370216
1629810631813,76889,292132,370254
1629810631823,76893,292089,370263
1629810631833,76900,292087,370274
1629810631843,76908,292131,370298
1629810631853,76927,292116,370309
1629810631863,76920,292149,370300
1629810631873,76918,292110,370275
1629810631883,76931,292124,370335
1629810631893,76942,292151,370336
1629810631903,76957,292167,370312
1629810631913,76954,292177,370323
1629810631923,76968,292214,370379
1629810631933,76997,292177,370353
1629810631943,77024,292211,370356
1629810631953,77030,292195,370333
1629810631963,77030,292206,370360
1629810631973,77036,292258,370375
1629810631983,77060,292205,370356
1629810631993,77058,292261,370393
1629810632003,77076,292277,370398
1629810632013,77079,292242,370360
1629810632023,77091,292266,370418
1629810632033,77110,292301,370395
1629810632043,77131,292263,370429
1629810632053,77138,292321,370435
1629810632063,77149,292318,370452
1629810632073,77164,292310,370451
1629810632083,77179,292323,370427
1629810632093,77214,292374,370419
1629810632103,77218,292351,370436
1629810632113,77235,292326,370446
1629810632123,77251,292379,370466
1629810632133,77243,292396,370475
1629810632143,77270,292394,370480
1629810632153,77292,292464,370469
1629810632163,77305,292402,370466
1629810632173,77317,292481,370471
1629810632183,77320,292484,370479
1629810632193,77347,292431,370496
1629810632203,77359,292458,370460
1629810632213,77365,292493,370504
1629810632223,77379,292508,370493
1629810632233,77389,292510,370529
1629810632243,77417,292484,370537
1629810632253,77428,292475,370515
1629810632263,77457,292520,370514
1629810632273,77482,292584,370530
1629810632283,77485,292579,370574
1629810632293,77501,292598,370535
1629810632303,77525,292590,370563
1629810632313,77545,292623,370557
1629810632323,77572,292654,370581
1629810632333,77584,292651,370588
1629810632343,77599,292686,370583
1629810632353,77619,292697,370595
1629810632363,77637,292727,370601
1629810632373,77639,292714,370606
1629810632383,77675,292800,370617
1629810632393,77675,292746,370642
1629810632403,77693,292779,370623
1629810632413,77707,292767,370589
1629810632423,77720,292743,370567
1629810632433,77714,292671,370574
1629810632443,77705,292664,370513
1629810632453,77660,292686,370519
1629810632463,77651,292612,370499
1629810632473,77631,292563,370450
1629810632483,77613,292570,370461
1629810632493,77599,292502,370449
1629810632503,77572,292497,370425
1629810632513,77556,292516,370451
1629810632523,77543,292531,370497
1629810632533,77525,292482,370466
1629810632543,77524,292477,370449
1629810632553,77518,292405,370435
1629810632563,77499,292395,370432
1629810632573,77487,292436,370394
1629810632583,77476,292415,370432
1629810632593,77478,292375,370455
1629810632603,77454,292377,370420
1629810632613,77441,292370,370378
1629810632623,77430,292317,370420
1629810632633,77411,292291,370386
1629810632643,77374,292290,370397
1629810632653,77378,292265,370393
1629810632663,77355,292299,370389
1629810632673,77351,292284,370403
1629810632683,77319,292300,370403
1629810632693,77313,292299,370422
1629810632703,77324,292306,370417
1629810632713,77323,292277,370406
1629810632723,77318,292298,370435
1629810632733,77337,292275,370422
1629810632743,77343,292237,370430
1629810632753,77347,292286,370455
1629810632763,77329,292283,370452
1629810632773,77328,292266,370461
1629810632783,77336,292288,370468
1629810632793,77312,292310,370480
1629810632803,77347,292276,370467
1629810632813,77335,292296,370529
1629810632823,77335,292316,370478
1629810632833,77336,292296,370521
1629810632843,77346,292304,370501
1629810632853,77362,292302,370492
1629810632863,77354,292312,370539
1629810632873,77352,292288,370532
1629810632883,77371,292355,370511
1629810632893,77378,292350,370518
1629810632903,77396,292353,370533
1629810632913,77405,292360,370522
1629810632923,77429,292366,370564
1629810632933,77428,292348,370605
1629810632943,77433,292371,370579
1629810632953,77441,292408,370599
1629810632963,77462,292397,370598
1629810632973,77471,292458,370568
1629810632983,77462,292410,370575
1629810632993,77492,292441,370578
1629810633003,77497,292424,370581
1629810633013,77508,292472,370608
1629810633023,77509,292467,370573
1629810633033,77524,292410,370598
1629810633043,77529,292443,370613
1629810633053,77541,292490,370589
1629810633063,77588,292486,370634
1629810633073,77577,292554,370651
1629810633083,77605,292520,370649
1629810633093,77604,292536,370678
1629810633103,77637,292524,370694
1629810633113,77645,292540,370721
1629810633123,77662,292600,370679
1629810633133,77679,292563,370731
1629810633143,77692,292582,370695
1629810633153,77690,292609,370687
1629810633163,77704,292606,370704
1629810633173,77722,292637,370732
1629810633183,77742,292632,370727
1629810633193,77755,292639,370715
1629810633203,77767,292645,370753
1629810633213,77782,292707,370710
1629810633223,77804,292730,370728
1629810633233,77817,292708,370781
1629810633243,77838,292730,370786
1629810633253,77849,292735,370768
1629810633263,77879,292708,370764
1629810633273,77891,292774,370803
1629810633283,77896,292815,370838
1629810633293,77931,292819,370811
1629810633303,77935,292798,370794
1629810633313,77944,292846,370826
1629810633323,77969,292821,370836
1629810633333,77984,292861,370833
1629810633343,78017,292852,370855
1629810633353,78039,292884,370889
1629810633363,78029,292912,370868
1629810633373,78060,292936,370862
1629810633383,78086,292934,370901
1629810633393,78096,292982,370914
1629810633403,78109,292969,370868
1629810633413,78139,293000,370919
1629810633423,78153,293023,370892
1629810633433,78159,293033,370921
1629810633443,78201,293050,370930
1629810633453,78189,293027,370906
1629810633463,78199,292972,370869
1629810633473,78173,292999,370861
1629810633483,78167,292941,370832
1629810633493,78146,292898,370817
1629810633503,78130,292905,370751
1629810633513,78125,292802,370741
1629810633523,78097,292837,370783
1629810633533,78086,292791,370785
1629810633543,78094,292808,370799
1629810633553,78072,292810,370803
1629810633563,78082,292775,370745
1629810633573,78057,292800,370731
1629810633583,78053,292781,370786
1629810633593,78037,292778,370773
1629810633603,78032,292762,370786
1629810633613,78016,292751,370725
1629810633623,77993,292744,370728
1629810633633,77989,292690,370713
1629810633643,77970,292700,370751
1629810633653,77964,292706,370714
1629810633663,77946,292658,370695
1629810633673,77934,292675,370709
1629810633683,77919,292685,370701
1629810633693,77915,292648,370743
1629810633703,77905,292576,370683
1629810633713,77893,292624,370702
1629810633723,77870,292602,370722
1629810633733,77863,292591,370726
1629810633743,77872,292606,370761
1629810633753,77869,292613,370731
1629810633763,77880,292609,370770
1629810633773,77872,292633,370761
1629810633783,77878,292580,370722
1629810633793,77874,292636,370769
1629810633803,77859,292655,370771
1629810633813,77866,292626,370767
1629810633823,77873,292599,370762
1629810633833,77864,292631,370788
1629810633843,77871,292616,370781
1629810633853,77867,292648,370780
1629810633863,77877,292623,370826
1629810633873,77891,292644,370807
1629810633883,77877,292680,370789
1629810633893,77895,292625,370804
1629810633903,77881,292652,370868
1629810633913,77899,292661,370842
1629810633923,77895,292688,370839
1629810633933,77919,292643,370858
1629810633943,77915,292673,370818
1629810633953,77932,292662,370871
1629810633963,77934,292686,370866
1629810633973,77956,292698,370882
1629810633983,77949,292717,370849
1629810633993,77962,292721,370837
1629810634003,77974,292704,370880
1629810634013,77990,292722,370844
1629810634023,77998,292758,370893
1629810634033,78016,292723,370888
1629810634043,78008,292752,370918
1629810634053,78026,292768,370911
1629810634063,78042,292777,370892
1629810634073,78053,292777,370935
1629810634083,78048,292828,370870
1629810634093,78066,292811,370889
1629810634103,78079,292810,370940
1629810634113,78089,292817,370962
1629810634123,78109,292819,370964
1629810634133,78123,292843,370967
1629810634143,78136,292857,370944
1629810634153,78148,292861,370952
1629810634163,78157,292864,370935
1629810634173,78178,292895,370964
1629810634183,78191,292922,371003
1629810634193,78220,292882,370998
1629810634203,78223,292881,370988
1629810634213,78230,292981,371004
1629810634223,78245,292960,370993
1629810634233,78262,292982,371032
1629810634243,78279,292996,371013
1629810634253,78284,292987,371045
1629810634263,78301,293005,371027
1629810634273,78318,293015,371036
1629810634283,78334,293031,371050
1629810634293,78337,293027,371045
1629810634303,78361,293048,371056
1629810634313,78378,293069,371037
1629810634323,78394,293080,371059
1629810634333,78406,293073,371016
1629810634343,78421,293112,371098
1629810634353,78429,293069,371060
1629810634363,78446,293137,371080
1629810634373,78477,293182,371102
1629810634383,78488,293106,371128
1629810634393,78507,293208,371106
1629810634403,78527,293240,371099
1629810634413,78550,293229,371118
1629810634423,78558,293236,371153
1629810634433,78563,293237,371128
1629810634443,78584,293266,371174
1629810634453,78600,293244,371162
1629810634463,78608,293246,371119
1629810634473,78615,293281,371136
1629810634483,78618,293264,371106
1629810634493,78612,293216,371054
1629810634503,78592,293177,371043
1629810634513,78586,293139,370977
1629810634523,78579,293151,370968
1629810634533,78565,293101,370946
1629810634543,78532,293067,370983
1629810634553,78522,293027,370936
1629810634563,78520,293030,370966
1629810634573,78503,293039,370984
1629810634583,78496,293010,370935
1629810634593,78501,292991,370985
1629810634603,78485,293014,370977
1629810634613,78466,292986,370944
1629810634623,78439,293003,370943
1629810634633,78420,292990,370925
1629810634643,78418,292949,370939
1629810634653,78409,292946,370899
1629810634663,78389,292916,370911
1629810634673,78377,292879,370907
1629810634683,78376,292901,370872
1629810634693,78359,292881,370899
1629810634703,78365,292875,370865
1629810634713,78355,292865,370863
1629810634723,78331,292815,370868
1629810634733,78327,292822,370875
1629810634743,78332,292837,370901
1629810634753,78320,292837,370907
1629810634763,78315,292865,370906
1629810634773,78299,292891,370893
1629810634783,78311,292886,370921
1629810634793,78306,292831,370892
1629810634803,78326,292835,370936
1629810634813,78324,292854,370889
1629810634823,78319,292867,370941
1629810634833,78313,292835,370942
1629810634843,78304,292826,370914
1629810634853,78295,292868,370926
1629810634863,78311,292825,370950
1629810634873,78317,292825,370959
1629810634883,78316,292873,370952
1629810634893,78322,292900,370904
1629810634903,78308,292855,370955
1629810634913,78322,292820,370976
1629810634923,78304,292896,370960
1629810634933,78308,292849,370944
1629810634943,78316,292894,370957
1629810634953,78318,292854,370959
1629810634963,78337,292857,370958
1629810634973,78334,292862,370952
1629810634983,78342,292913,370955
1629810634993,78373,292879,371007
1629810635003,78361,292904,370974
1629810635013,78380,292951,370975
1629810635023,78357,292913,370959
1629810635033,78387,292939,370996
1629810635043,78411,292866,370986
1629810635053,78408,292917,370975
1629810635063,78411,292934,371002
1629810635073,78419,292938,370977
1629810635083,78428,292931,370979
1629810635093,78432,292915,370993
1629810635103,78435,292969,371009
1629810635113,78446,292965,370979
1629810635123,78458,292971,371023
1629810635133,78458,293010,370997
1629810635143,78482,292995,370999
1629810635153,78491,293043,371016
1629810635163,78495,293017,370969
1629810635173,78532,293039,371020
1629810635183,78533,293039,371010
1629810635193,78554,293045,371039
1629810635203,78555,293058,371050
1629810635213,78568,293068,371047
1629810635223,78577,293091,371036
1629810635233,78574,293086,371041
1629810635243,78591,293088,371034
1629810635253,78611,293075,371024
1629810635263,78610,293098,371002
1629810635273,78608,293106,371050
1629810635283,78630,293082,371019
1629810635293,78638,293113,371030
1629810635303,78653,293130,371047
1629810635313,78677,293160,371018
1629810635323,78683,293155,371031
1629810635333,78716,293199,371057
1629810635343,78741,293250,371045
1629810635353,78737,293230,371073
1629810635363,78743,293175,371055
1629810635373,78762,293268,371058
1629810635383,78784,293263,371090
1629810635393,78779,293267,371106
1629810635403,78803,293269,371039
1629810635413,78799,293221,371050
1629810635423,78793,293215,371007
1629810635433,78783,293165,370984
1629810635443,78769,293156,370993
1629810635453,78763,293124,370936
1629810635463,78732,293055,370935
1629810635473,78718,293055,370876
1629810635483,78686,293032,370910
1629810635493,78672,293004,370891
1629810635503,78672,292996,370889
1629810635513,78663,292979,370850
1629810635523,78646,292933,370840
1629810635533,78631,292961,370871
1629810635543,78622,292921,370850
1629810635553,78612,292918,370804
1629810635563,78594,292910,370870
1629810635573,78573,292903,370831
1629810635583,78561,292878,370801
1629810635593,78540,292872,370828
1629810635603,78508,292848,370817
1629810635613,78496,292839,370816
1629810635623,78489,292805,370789
1629810635633,78474,292791,370807
1629810635643,78461,292824,370750
1629810635653,78443,292820,370751
1629810635663,78418,292783,370748
1629810635673,78419,292738,370801
1629810635683,78414,292789,370790
1629810635693,78401,292767,370759
1629810635703,78392,292748,370790
1629810635713,78403,292747,370794
1629810635723,78394,292726,370780
1629810635733,78365,292731,370800
1629810635743,78368,292732,370787
1629810635753,78370,292757,370766
1629810635763,78358,292736,370796
1629810635773,78347,292733,370809
1629810635783,78348,292718,370758
1629810635793,78353,292716,370794
1629810635803,78354,292719,370765
1629810635813,78345,292725,370790
1629810635823,78339,292690,370805
1629810635833,78346,292713,370809
1629810635843,78349,292724,370825
1629810635853,78348,292711,370790
1629810635863,78353,292710,370817
1629810635873,78342,292747,370822
1629810635883,78351,292726,370821
1629810635893,78353,292752,370841
1629810635903,78359,292750,370826
1629810635913,78359,292746,370816
1629810635923,78364,292750,370802
1629810635933,78370,292752,370852
1629810635943,78374,292813,370866
1629810635953,78379,292730,370865
1629810635963,78380,292801,370831
1629810635973,78387,292781,370835
1629810635983,78400,292792,370848
1629810635993,78412,292797,370860
1629810636003,78413,292858,370859
1629810636013,78432,292853,370853
1629810636023,78419,292825,370864
1629810636033,78431,292846,370874
1629810636043,78446,292842,370897
1629810636053,78456,292870,370865
1629810636063,78464,292917,370897
1629810636073,78472,292920,370900
1629810636083,78483,292888,370915
1629810636093,78493,292925,370894
1629810636103,78485,292951,370876
1629810636113,78498,292952,370916
1629810636123,78514,292945,370880
1629810636133,78521,292927,370949
1629810636143,78552,292938,370956
1629810636153,78546,292984,370922
1629810636163,78562,292977,370985
1629810636173,78579,292979,370966
1629810636183,78600,293022,370946
1629810636193,78589,293026,370962
1629810636203,78608,293050,370935
1629810636213,78620,293045,370955
1629810636223,78629,293085,370962
1629810636233,78638,293096,371002
1629810636243,78640,293075,370970
1629810636253,78653,293095,370974
1629810636263,78669,293126,370989
1629810636273,78686,293120,371013
1629810636283,78697,293203,371037
1629810636293,78715,293193,371036
1629810636303,78725,293170,370992
1629810636313,78754,293143,371024
1629810636323,78762,293236,371022
1629810636333,78785,293220,371080
1629810636343,78789,293276,371034
1629810636353,78806,293257,371019
1629810636363,78834,293287,371081
1629810636373,78848,293248,371081
1629810636383,78842,293282,371111
1629810636393,78860,293287,371085
1629810636403,78854,293304,371068
1629810636413,78841,293281,371038
1629810636423,78837,293228,371007
1629810636433,78823,293219,371006
1629810636443,78802,293172,370966
1629810636453,78780,293161,370928
1629810636463,78748,293118,370941
1629810636473,78736,293078,370919
1629810636483,78706,293038,370870
1629810636493,78717,293037,370925
1629810636503,78675,293032,370933
1629810636513,78661,292992,370927
1629810636523,78658,292999,370914
1629810636533,78627,292994,370904
1629810636543,78605,292968,370898
1629810636553,78573,292952,370844
1629810636563,78571,292918,370889
1629810636573,78535,292877,370834
1629810636583,78517,292857,370886
1629810636593,78503,292884,370831
1629810636603,78466,292863,370819
1629810636613,78444,292850,370852
1629810636623,78418,292823,370788
1629810636633,78371,292787,370821
1629810636643,78376,292773,370832
1629810636653,78348,292776,370862
1629810636663,78330,292792,370872
1629810636673,78308,292728,370812
1629810636683,78286,292691,370857
1629810636693,78289,292732,370822
1629810636703,78248,292734,370846
1629810636713,78252,292738,370866
1629810636723,78232,292739,370832
1629810636733,78237,292735,370887
1629810636743,78212,292730,370860
1629810636753,78201,292706,370837
1629810636763,78196,292718,370841
1629810636773,78182,292694,370864
1629810636783,78165,292720,370876
1629810636793,78179,292707,370922
1629810636803,78155,292688,370878
1629810636813,78145,292727,370831
1629810636823,78149,292693,370879
1629810636833,78131,292736,370920
1629810636843,78141,292702,370892
1629810636853,78162,292692,370900
1629810636863,78135,292700,370882
1629810636873,78139,292732,370938
1629810636883,78141,292721,370900
1629810636893,78118,292723,370916
1629810636903,78124,292742,370944
1629810636913,78132,292724,370907
1629810636923,78125,292779,370963
1629810636933,78130,292768,370990
1629810636943,78135,292793,370950
1629810636953,78157,292791,370939
1629810636963,78142,292811,370961
1629810636973,78164,292791,370977
1629810636983,78155,292806,370995
1629810636993,78176,292774,371040
1629810637003,78158,292816,370963
1629810637013,78177,292830,370951
1629810637023,78177,292807,370968
1629810637033,78173,292826,370958
1629810637043,78174,292832,371003
1629810637053,78192,292831,371022
1629810637063,78200,292809,371003
1629810637073,78227,292835,371042
1629810637083,78224,292851,371004
1629810637093,78228,292923,371060
1629810637103,78222,292929,371094
1629810637113,78251,292937,371085
1629810637123,78244,292889,371078
1629810637133,78261,292902,371061
1629810637143,78279,292985,371128
1629810637153,78287,292975,371086
1629810637163,78280,292973,371068
1629810637173,78298,292987,371073
1629810637183,78312,292964,371127
1629810637193,78317,292996,371117
1629810637203,78319,293027,371083
1629810637213,78329,293088,371091
1629810637223,78345,293074,371125
1629810637233,78353,293067,371174
1629810637243,78370,293113,371160
1629810637253,78373,293087,371176
1629810637263,78378,293130,371125
1629810637273,78401,293127,371145
1629810637283,78422,293123,371136
1629810637293,78450,293151,371171
1629810637303,78427,293127,371208
1629810637313,78451,293197,371192
1629810637323,78467,293217,371187
1629810637333,78475,293223,371216
1629810637343,78496,293206,371222
1629810637353,78493,293236,371246
1629810637363,78505,293275,371221
1629810637373,78516,293243,371219
1629810637383,78535,293289,371214
1629810637393,78546,293274,371269
1629810637403,78571,293324,371212
1629810637413,78583,293334,371231
1629810637423,78578,293325,371231
1629810637433,78603,293302,371228
1629810637443,78600,293309,371222
1629810637453,78576,293294,371159
1629810637463,78568,293186,371119
1629810637473,78533,293183,371109
1629810637483,78505,293139,371095
1629810637493,78466,293092,371079
1629810637503,78449,293039,371054
1629810637513,78411,292992,371037
1629810637523,78387,293013,371029
1629810637533,78356,292981,371043
1629810637543,78336,293008,371068
1629810637553,78311,293040,371059
1629810637563,78306,292991,371047
1629810637573,78276,292961,371014
1629810637583,78245,292948,371024
1629810637593,78213,292897,370996
1629810637603,78187,292895,371003
1629810637613,78153,292893,371018
1629810637623,78136,292842,371000
1629810637633,78102,292812,370972
1629810637643,78076,292807,370991
1629810637653,78039,292784,370986
1629810637663,78012,292713,370954
1629810637673,77977,292746,370996
1629810637683,77947,292708,370938
1629810637693,77907,292726,370978
1629810637703,77884,292683,371001
1629810637713,77852,292667,371000
1629810637723,77832,292664,371030
1629810637733,77821,292689,371046
1629810637743,77804,292686,371036
1629810637753,77781,292664,370976
1629810637763,77785,292648,370996
1629810637773,77786,292669,371014
1629810637783,77756,292667,371030
1629810637793,77737,292653,370994
1629810637803,77743,292634,371024
1629810637813,77715,292623,371038
1629810637823,77696,292638,371011
1629810637833,77681,292626,371032
1629810637843,77663,292640,371063
1629810637853,77648,292663,371074
1629810637863,77639,292655,371076
1629810637873,77621,292649,371072
1629810637883,77626,292681,371043
1629810637893,77619,292665,371060
1629810637903,77611,292636,371063
1629810637913,77613,292669,371066
1629810637923,77623,292684,371130
1629810637933,77619,292686,371067
1629810637943,77607,292694,371128
1629810637953,77605,292678,371155
1629810637963,77603,292685,371114
1629810637973,77607,292738,371139
1629810637983,77615,292700,371124
1629810637993,77615,292715,371156
1629810638003,77617,292748,371162
1629810638013,77602,292750,371146
1629810638023,77617,292736,371156
1629810638033,77616,292720,371154
1629810638043,77614,292721,371173
1629810638053,77608,292767,371188
1629810638063,77630,292780,371160
1629810638073,77630,292790,371195
1629810638083,77634,292780,371216
1629810638093,77628,292782,371242
1629810638103,77648,292836,371234
1629810638113,77651,292840,371219
1629810638123,77645,292841,371252
1629810638133,77649,292848,371242
1629810638143,77670,292850,371279
1629810638153,77682,292896,371282
1629810638163,77686,292896,371268
1629810638173,77684,292931,371259
1629810638183,77695,292902,371316
1629810638193,77710,292921,371277
1629810638203,77721,292921,371315
1629810638213,77717,292939,371282
1629810638223,77715,292936,371330
1629810638233,77730,292958,371332
1629810638243,77743,292917,371324
1629810638253,77761,292943,371332
1629810638263,77768,292987,371272
1629810638273,77767,292968,371321
1629810638283,77792,292976,371304
1629810638293,77796,293007,371352
1629810638303,77799,293043,371364
1629810638313,77801,293019,371376
1629810638323,77820,293064,371352
1629810638333,77841,293052,371390
1629810638343,77843,293073,371396
1629810638353,77852,293085,371394
1629810638363,77857,293122,371380
1629810638373,77874,293101,371396
1629810638383,77882,293152,371396
1629810638393,77896,293131,371396
1629810638403,77928,293161,371440
1629810638413,77932,293177,371409
1629810638423,77935,293218,371454
1629810638433,77961,293215,371430
1629810638443,77976,293189,371403
1629810638453,77956,293162,371374
1629810638463,77943,293137,371378
1629810638473,77928,293116,371310
1629810638483,77895,293068,371306
1629810638493,77867,293046,371243
1629810638503,77821,293021,371276
1629810638513,77792,292943,371291
1629810638523,77764,292949,371248
1629810638533,77726,292916,371281
1629810638543,77713,292912,371285
1629810638553,77675,292905,371273
1629810638563,77668,292850,371292
1629810638573,77632,292855,371281
1629810638583,77611,292842,371256
1629810638593,77601,292842,371231
1629810638603,77569,292806,371297
1629810638613,77531,292833,371247
1629810638623,77501,292826,371252
1629810638633,77473,292819,371225
1629810638643,77453,292762,371250
1629810638653,77410,292762,371225
1629810638663,77380,292734,371212
1629810638673,77365,292681,371214
1629810638683,77336,292673,371202
1629810638693,77298,292673,371185
1629810638703,77272,292705,371245
1629810638713,77257,292671,371227
1629810638723,77257,292703,371280
1629810638733,77233,292670,371315
1629810638743,77242,292631,371248
1629810638753,77195,292718,371284
1629810638763,77213,292695,371266
1629810638773,77193,292604,371266
1629810638783,77182,292652,371291
1629810638793,77162,292665,371306
1629810638803,77165,292619,371319
1629810638813,77146,292612,371318
1629810638823,77143,292619,371310
1629810638833,77129,292621,371287
1629810638843,77112,292618,371321
1629810638853,77107,292649,371344
1629810638863,77102,292658,371329
1629810638873,77086,292672,371331
1629810638883,77083,292636,371390
1629810638893,77096,292651,371346
1629810638903,77079,292668,371354
1629810638913,77081,292668,371417
1629810638923,77085,292709,371439
1629810638933,77064,292673,371393
1629810638943,77069,292698,371396
1629810638953,77079,292690,371406
1629810638963,77087,292661,371405
1629810638973,77091,292714,371421
1629810638983,77085,292717,371402
1629810638993,77099,292709,371426
1629810639003,77089,292734,371425
1629810639013,77092,292698,371425
1629810639023,77079,292734,371419
1629810639033,77081,292773,371393
1629810639043,77089,292726,371426
1629810639053,77108,292711,371427
1629810639063,77110,292785,371467
1629810639073,77105,292794,371493
1629810639083,77131,292764,371485
1629810639093,77126,292764,371465
1629810639103,77137,292774,371489
1629810639113,77139,292828,371490
1629810639123,77132,292818,371540
1629810639133,77150,292829,371502
1629810639143,77146,292814,371515
1629810639153,77161,292841,371476
1629810639163,77164,292879,371541
1629810639173,77177,292888,371527
1629810639183,77181,292886,371545
1629810639193,77198,292896,371565
1629810639203,77202,292879,371587
1629810639213,77229,292890,371558
1629810639223,77216,292930,371541
1629810639233,77234,292975,371572
1629810639243,77254,292943,371572
1629810639253,77269,292948,371590
1629810639263,77279,292958,371612
1629810639273,77298,292969,371612
1629810639283,77303,293020,371609
1629810639293,77321,293006,371610
1629810639303,77322,293032,371651
1629810639313,77323,293038,371577
1629810639323,77358,293057,371648
1629810639333,77369,293028,371611
1629810639343,77376,293050,371671
1629810639353,77397,293064,371678
1629810639363,77398,293074,371647
1629810639373,77402,293102,371677
1629810639383,77391,293053,371609
1629810639393,77376,293025,371598
1629810639403,77345,292988,371517
1629810639413,77339,292958,371520
1629810639423,77318,292914,371522
1629810639433,77276,292882,371481
1629810639443,77250,292829,371494
1629810639453,77224,292834,371461
1629810639463,77177,292832,371472
1629810639473,77158,292788,371478
1629810639483,77137,292773,371486
1629810639493,77117,292781,371481
1629810639503,77102,292784,371422
1629810639513,77067,292721,371460
1629810639523,77047,292735,371439
1629810639533,77016,292726,371463
1629810639543,77013,292721,371442
1629810639553,76978,292684,371425
1629810639563,76954,292651,371467
1629810639573,76922,292591,371442
1629810639583,76919,292593,371413
1629810639593,76893,292613,371469
1629810639603,76862,292579,371438
1629810639613,76849,292553,371424
1629810639623,76817,292552,371461
1629810639633,76805,292612,371478
1629810639643,76792,292571,371501
1629810639653,76783,292588,371478
1629810639663,76783,292579,371466
1629810639673,76757,292617,371469
1629810639683,76761,292550,371470
1629810639693,76753,292589,371501
1629810639703,76756,292599,371488
1629810639713,76755,292555,371454
1629810639723,76753,292601,371489
1629810639733,76735,292591,371506
1629810639743,76725,292551,371516
1629810639753,76719,292545,371518
1629810639763,76724,292553,371496
1629810639773,76716,292549,371515
1629810639783,76696,292560,371526
1629810639793,76703,292578,371549
1629810639803,76704,292547,371522
1629810639813,76701,292562,371540
1629810639823,76705,292583,371558
1629810639833,76705,292561,371572
1629810639843,76698,292594,371560
1629810639853,76701,292619,371626
1629810639863,76720,292595,371580
1629810639873,76726,292636,371651
1629810639883,76730,292647,371582
1629810639893,76736,292622,371617
1629810639903,76761,292654,371617
1629810639913,76753,292690,371615
1629810639923,76758,292659,371672
1629810639933,76768,292655,371610
1629810639943,76778,292654,371652
1629810639953,76772,292692,371647
1629810639963,76782,292668,371612
1629810639973,76778,292697,371645
1629810639983,76792,292690,371689
1629810639993,76794,292745,371650
1629810640003,76807,292761,371661
1629810640013,76820,292734,371685
1629810640023,76851,292806,371735
1629810640033,76871,292781,371684
1629810640043,76881,292770,371720
1629810640053,76885,292806,371706
1629810640063,76882,292808,371752
1629810640073,76906,292825,371756
1629810640083,76910,292831,371733
1629810640093,76931,292858,371792
1629810640103,76944,292848,371756
1629810640113,76937,292822,371775
1629810640123,76957,292888,371772
1629810640133,76957,292920,371763
1629810640143,76966,292913,371784
1629810640153,77004,292897,371759
1629810640163,77011,292924,371801
1629810640173,77024,292939,371767
1629810640183,77047,292944,371792
1629810640193,77052,292976,371809
1629810640203,77079,292965,371800
1629810640213,77085,292987,371835
1629810640223,77093,293020,371859
1629810640233,77100,292993,371815
1629810640243,77128,293050,371866
1629810640253,77125,293036,371848
1629810640263,77161,293052,371865
1629810640273,77161,293071,371842
1629810640283,77178,293089,371840
1629810640293,77201,293121,371876
1629810640303,77223,293110,371915
1629810640313,77234,293122,371841
1629810640323,77240,293114,371874
1629810640333,77248,293081,371829
1629810640343,77229,293067,371828
1629810640353,77218,293037,371783
1629810640363,77188,292974,371722
1629810640373,77156,292930,371777
1629810640383,77135,292927,371685
1629810640393,77101,292905,371694
1629810640403,77066,292834,371711
1629810640413,77055,292850,371728
1629810640423,77022,292803,371674
1629810640433,76998,292824,371669
1629810640443,76982,292801,371646
1629810640453,76959,292763,371653
1629810640463,76927,292767,371669
1629810640473,76911,292747,371648
1629810640483,76880,292720,371638
1629810640493,76862,292733,371617
1629810640503,76859,292672,371643
1629810640513,76811,292706,371639
1629810640523,76802,292682,371630
1629810640533,76769,292608,371609
1629810640543,76763,292629,371577
1629810640553,76729,292603,371631
1629810640563,76702,292584,371628
1629810640573,76693,292524,371583
1629810640583,76666,292586,371630
1629810640593,76643,292547,371574
1629810640603,76636,292541,371639
1629810640613,76624,292577,371627
1629810640623,76621,292561,371617
1629810640633,76615,292552,371645
1629810640643,76608,292546,371620
1629810640653,76596,292588,371638
1629810640663,76617,292561,371653
1629810640673,76596,292548,371655
1629810640683,76602,292529,371661
1629810640693,76585,292537,371661
1629810640703,76577,292551,371655
1629810640713,76591,292530,371661
1629810640723,76582,292553,371677
1629810640733,76583,292561,371716
1629810640743,76594,292556,371700
1629810640753,76590,292556,371729
1629810640763,76575,292563,371697
1629810640773,76579,292601,371721
1629810640783,76583,292550,371730
1629810640793,76580,292533,371734
1629810640803,76597,292585,371732
1629810640813,76613,292548,371724
1629810640823,76619,292559,371727
1629810640833,76639,292588,371765
1629810640843,76638,292609,371796
1629810640853,76642,292617,371775
1629810640863,76659,292638,371791
1629810640873,76655,292632,371787
1629810640883,76663,292656,371816
1629810640893,76681,292666,371793
1629810640903,76688,292674,371769
1629810640913,76691,292689,371773
1629810640923,76698,292700,371832
1629810640933,76715,292692,371789
1629810640943,76726,292680,371844
1629810640953,76731,292702,371834
1629810640963,76753,292718,371823
1629810640973,76758,292772,371844
1629810640983,76779,292713,371885
1629810640993,76805,292767,371855
1629810641003,76792,292829,371889
1629810641013,76809,292780,371893
1629810641023,76830,292753,371903
1629810641033,76850,292795,371906
1629810641043,76873,292865,371879
1629810641053,76870,292813,371919
1629810641063,76878,292839,371934
1629810641073,76904,292874,371948
1629810641083,76917,292862,371928
1629810641093,76917,292855,371913
1629810641103,76936,292878,371969
1629810641113,76954,292906,371957
1629810641123,76961,292960,371954
1629810641133,76977,292896,371926
1629810641143,76994,292969,371933
1629810641153,77015,292974,371978
1629810641163,77025,292975,371980
1629810641173,77069,293003,371955
1629810641183,77083,293016,372017
1629810641193,77070,293024,371994
1629810641203,77089,293023,372011
1629810641213,77129,293045,372010
1629810641223,77136,293054,372013
1629810641233,77150,293072,372017
1629810641243,77175,293086,372013
1629810641253,77186,293113,372032
1629810641263,77200,293117,371975
1629810641273,77218,293135,372007
1629810641283,77236,293134,372066
1629810641293,77253,293135,372052
1629810641303,77274,293170,372052
1629810641313,77287,293214,372050
1629810641323,77311,293196,372056
1629810641333,77327,293184,372056
1629810641343,77324,293194,372059
1629810641353,77309,293205,371983
1629810641363,77297,293116,371957
1629810641373,77300,293087,371903
1629810641383,77259,293040,371920
1629810641393,77238,293033,371901
1629810641403,77210,292948,371898
1629810641413,77188,292973,371862
1629810641423,77165,292914,371816
1629810641433,77144,292913,371876
1629810641443,77120,292909,371836
1629810641453,77100,292901,371817
1629810641463,77083,292860,371824
1629810641473,77074,292860,371837
1629810641483,77059,292861,371782
1629810641493,77043,292822,371828
1629810641503,77028,292768,371800
1629810641513,77006,292764,371770
1629810641523,77000,292739,371743
1629810641533,76982,292734,371766
1629810641543,76957,292732,371748
1629810641553,76936,292678,371778
1629810641563,76915,292705,371778
1629810641573,76897,292664,371749
1629810641583,76873,292685,371777
1629810641593,76858,292695,371744
1629810641603,76831,292631,371768
1629810641613,76822,292626,371761
1629810641623,76820,292592,371753
1629810641633,76828,292649,371787
1629810641643,76815,292646,371787
1629810641653,76828,292677,371765
1629810641663,76827,292631,371832
1629810641673,76809,292665,371791
1629810641683,76815,292634,371833
1629810641693,76810,292633,371767
1629810641703,76815,292608,371808
1629810641713,76800,292627,371810
1629810641723,76796,292625,371806
1629810641733,76797,292627,371830
1629810641743,76796,292632,371786
1629810641753,76794,292609,371815
1629810641763,76800,292629,371815
1629810641773,76816,292652,371813
1629810641783,76809,292619,371783
1629810641793,76836,292665,371830
1629810641803,76833,292616,371852
1629810641813,76829,292679,371834
1629810641823,76848,292629,371795
1629810641833,76859,292668,371857
1629810641843,76869,292683,371874
1629810641853,76868,292710,371875
1629810641863,76889,292686,371882
1629810641873,76899,292699,371882
1629810641883,76881,292664,371888
1629810641893,76894,292677,371839
1629810641903,76906,292697,371857
1629810641913,76914,292698,371834
1629810641923,76930,292702,371846
1629810641933,76942,292698,371828
1629810641943,76947,292702,371850
1629810641953,76950,292717,371880
1629810641963,76973,292673,371851
1629810641973,76977,292713,371888
1629810641983,77013,292736,371850
1629810641993,77009,292746,371855
1629810642003,77027,292756,371877
1629810642013,77044,292741,371874
1629810642023,77064,292774,371848
1629810642033,77071,292778,371889
1629810642043,77089,292799,371876
1629810642053,77101,292772,371897
1629810642063,77110,292830,371892
1629810642073,77124,292816,371907
1629810642083,77145,292854,371910
1629810642093,77146,292845,371906
1629810642103,77152,292877,371910
1629810642113,77172,292870,371934
1629810642123,77188,292862,371927
1629810642133,77200,292893,371937
1629810642143,77239,292923,371895
1629810642153,77253,292922,371938
1629810642163,77251,292900,371975
1629810642173,77282,292933,371943
1629810642183,77272,292956,371954
1629810642193,77305,293007,371979
1629810642203,77319,293004,371974
1629810642213,77341,293015,371992
1629810642223,77343,293017,371960
1629810642233,77362,293044,372005
1629810642243,77383,293057,371965
1629810642253,77394,293072,372040
1629810642263,77419,293127,372031
1629810642273,77434,293124,372036
1629810642283,77452,293146,372006
1629810642293,77470,293124,372033
1629810642303,77499,293209,372043
1629810642313,77523,293216,372112
1629810642323,77545,293187,372084
1629810642333,77562,293186,372073
1629810642343,77576,293196,372077
1629810642353,77578,293253,372055
1629810642363,77596,293261,372029
1629810642373,77595,293224,372043
1629810642383,77574,293198,371968
1629810642393,77560,293167,372000
1629810642403,77543,293109,371945
1629810642413,77540,293058,371904
1629810642423,77512,293069,371921
1629810642433,77489,293044,371878
1629810642443,77465,292988,371879
1629810642453,77455,292973,371908
1629810642463,77460,292974,371904
1629810642473,77435,292974,371880
1629810642483,77437,293012,371922
1629810642493,77433,292970,371869
1629810642503,77423,292958,371847
1629810642513,77388,292913,371876
1629810642523,77377,292868,371863
1629810642533,77347,292919,371830
1629810642543,77339,292866,371828
1629810642553,77331,292825,371876
1629810642563,77312,292826,371840
1629810642573,77298,292835,371840
1629810642583,77294,292812,371878
1629810642593,77274,292842,371836
1629810642603,77265,292835,371850
1629810642613,77246,292796,371832
1629810642623,77221,292777,371803
1629810642633,77221,292770,371848
1629810642643,77222,292751,371864
1629810642653,77207,292756,371881
1629810642663,77216,292821,371857
1629810642673,77216,292816,371891
1629810642683,77231,292794,371869
1629810642693,77220,292804,371858
1629810642703,77215,292768,371888
1629810642713,77213,292765,371871
1629810642723,77213,292765,371917
1629810642733,77225,292787,371856
1629810642743,77218,292792,371851
1629810642753,77216,292770,371867
1629810642763,77218,292813,371855
1629810642773,77234,292803,371888
1629810642783,77247,292796,371848
1629810642793,77251,292776,371898
1629810642803,77251,292786,371928
1629810642813,77258,292787,371890
1629810642823,77269,292845,371900
1629810642833,77281,292817,371963
1629810642843,77291,292828,371939
1629810642853,77276,292815,371926
1629810642863,77306,292859,371930
1629810642873,77304,292851,371969
1629810642883,77319,292867,371941
1629810642893,77322,292890,371932
1629810642903,77332,292924,371962
1629810642913,77339,292886,371977
1629810642923,77358,292867,371990
1629810642933,77372,292922,371969
1629810642943,77391,292909,371991
1629810642953,77411,292933,371979
1629810642963,77412,292937,372035
1629810642973,77440,292958,371993
1629810642983,77427,292972,372006
1629810642993,77450,292953,371999
1629810643003,77451,292984,372037
1629810643013,77487,292999,372038
1629810643023,77467,293014,371988
1629810643033,77492,292988,372017
1629810643043,77518,293028,372069
1629810643053,77542,293035,372014
1629810643063,77551,293047,372023
1629810643073,77568,293081,372072
1629810643083,77586,293061,372048
1629810643093,77580,293059,372046
1629810643103,77599,293092,372032
1629810643113,77638,293111,372072
1629810643123,77648,293089,372061
1629810643133,77659,293114,372073
1629810643143,77673,293132,372072
1629810643153,77686,293153,372126
1629810643163,77700,293158,372077
1629810643173,77722,293176,372121
1629810643183,77722,293170,372091
1629810643193,77751,293199,372093
1629810643203,77761,293190,372097
1629810643213,77775,293182,372108
1629810643223,77795,293194,372117
1629810643233,77817,293264,372146
1629810643243,77839,293238,372139
1629810643253,77845,293271,372129
1629810643263,77858,293314,372114
1629810643273,77901,293313,372144
1629810643283,77911,293341,372120
1629810643293,77934,293368,372176
1629810643303,77951,293373,372142
1629810643313,77958,293344,372178
1629810643323,77987,293398,372174
1629810643333,77994,293373,372191
1629810643343,78005,293440,372173
1629810643353,78018,293452,372201
1629810643363,78043,293432,372215
1629810643373,78051,293464,372170
1629810643383,78061,293442,372105
1629810643393,78076,293420,372110
1629810643403,78064,293373,372061
1629810643413,78044,293333,372064
1629810643423,78024,293324,372029
1629810643433,78007,293278,372013
1629810643443,77992,293292,371978
1629810643453,77982,293240,372025
1629810643463,77981,293251,371985
1629810643473,77969,293215,372011
1629810643483,77959,293205,371976
1629810643493,77952,293201,371995
1629810643503,77943,293186,371970
1629810643513,77934,293177,371976
1629810643523,77918,293171,371967
1629810643533,77909,293123,371955
1629810643543,77910,293117,371959
1629810643553,77902,293141,371964
1629810643563,77898,293118,371985
1629810643573,77878,293093,371970
1629810643583,77867,293077,371926
1629810643593,77851,293050,371934
1629810643603,77857,293057,371923
1629810643613,77844,292996,371959
1629810643623,77829,293061,371932
1629810643633,77826,293015,371927
1629810643643,77818,293020,371923
1629810643653,77828,293016,371979
1629810643663,77820,293073,371923
1629810643673,77822,293057,371965
1629810643683,77821,293054,371983
1629810643693,77819,293065,371964
1629810643703,77826,293055,371948
1629810643713,77814,293064,371931
1629810643723,77815,293030,371968
1629810643733,77817,293063,371974
1629810643743,77830,293034,371954
1629810643753,77847,293009,371935
1629810643763,77821,293047,371948
1629810643773,77829,293060,371952
1629810643783,77835,293062,371981
1629810643793,77841,293049,371919
1629810643803,77862,293088,371941
1629810643813,77841,293058,371972
1629810643823,77868,293082,371991
1629810643833,77871,293072,371951
1629810643843,77869,293084,371976
1629810643853,77882,293091,371994
1629810643863,77877,293108,372012
1629810643873,77892,293070,372006
1629810643883,77900,293125,371990
1629810643893,77911,293138,371986
1629810643903,77919,293118,372012
1629810643913,77949,293144,372010
1629810643923,77956,293149,372025
1629810643933,77942,293156,372025
1629810643943,77965,293148,372003
1629810643953,77986,293174,372041
1629810643963,77986,293176,372017
1629810643973,78012,293213,372007
1629810643983,78009,293194,372026
1629810643993,78028,293199,372007
1629810644003,78018,293194,372028
1629810644013,78039,293220,372015
1629810644023,78062,293237,372031
1629810644033,78065,293249,372043
1629810644043,78082,293248,372046
1629810644053,78098,293236,372077
1629810644063,78114,293260,372077
1629810644073,78134,293312,372017
1629810644083,78166,293321,372061
1629810644093,78152,293307,372091
1629810644103,78170,293335,372103
1629810644113,78197,293357,372059
1629810644123,78194,293310,372068
1629810644133,78214,293326,372069
1629810644143,78219,293365,372089
1629810644153,78240,293371,372063
1629810644163,78246,293380,372080
1629810644173,78260,293420,372120
1629810644183,78273,293419,372078
1629810644193,78293,293386,372109
1629810644203,78311,293444,372094
1629810644213,78318,293457,372096
1629810644223,78333,293461,372114
1629810644233,78352,293421,372152
1629810644243,78369,293526,372123
1629810644253,78407,293516,372174
1629810644263,78438,293502,372143
1629810644273,78413,293528,372149
1629810644283,78424,293543,372149
1629810644293,78433,293548,372109
1629810644303,78431,293478,372070
1629810644313,78414,293461,372072
1629810644323,78404,293440,372039
1629810644333,78377,293381,372033
1629810644343,78356,293373,371989
1629810644353,78349,293331,371983
1629810644363,78346,293333,371970
1629810644373,78332,293257,371973
1629810644383,78310,293247,372006
1629810644393,78307,293262,371979
1629810644403,78292,293300,371976
1629810644413,78295,293237,371931
1629810644423,78282,293258,371967
1629810644433,78266,293249,371957
1629810644443,78259,293203,371956
1629810644453,78251,293212,371917
1629810644463,78236,293186,371948
1629810644473,78220,293162,371939
1629810644483,78191,293240,371930
1629810644493,78191,293139,371917
1629810644503,78164,293124,371902
1629810644513,78171,293108,371864
1629810644523,78152,293098,371902
1629810644533,78140,293090,371923
1629810644543,78140,293105,371896
1629810644553,78141,293150,371944
1629810644563,78126,293131,371923
1629810644573,78135,293157,371959
1629810644583,78145,293153,371942
1629810644593,78147,293163,371899
1629810644603,78150,293117,371891
1629810644613,78145,293112,371928
1629810644623,78139,293142,371884
1629810644633,78129,293120,371938
1629810644643,78123,293126,371901
1629810644653,78121,293110,371917
1629810644663,78122,293124,371933
1629810644673,78119,293130,371939
1629810644683,78123,293109,371909
1629810644693,78119,293125,371913
1629810644703,78128,293139,371932
1629810644713,78130,293150,371961
1629810644723,78157,293103,371968
1629810644733,78150,293144,371970
1629810644743,78172,293149,371948
1629810644753,78171,293140,371937
1629810644763,78169,293145,371980
1629810644773,78167,293149,371964
1629810644783,78186,293187,371962
1629810644793,78195,293172,371935
1629810644803,78202,293179,371959
1629810644813,78210,293222,371982
1629810644823,78227,293215,371994
1629810644833,78233,293221,372000
1629810644843,78230,293216,371951
1629810644853,78239,293255,371959
1629810644863,78246,293222,372025
1629810644873,78265,293272,371983
1629810644883,78292,293217,371949
1629810644893,78285,293306,372006
1629810644903,78303,293284,372030
1629810644913,78309,293249,371985
1629810644923,78327,293288,371993
1629810644933,78327,293297,372013
1629810644943,78346,293304,372017
1629810644953,78362,293341,372041
1629810644963,78387,293344,372010
1629810644973,78405,293337,372063
1629810644983,78416,293397,372054
1629810644993,78418,293384,372054
1629810645003,78418,293369,372053
1629810645013,78436,293401,372042
1629810645023,78450,293423,372074
1629810645033,78462,293415,372057
1629810645043,78474,293435,372091
1629810645053,78494,293471,372056
1629810645063,78502,293446,372095
1629810645073,78517,293433,372051
1629810645083,78538,293426,372101
1629810645093,78554,293489,372097
1629810645103,78559,293518,372102
1629810645113,78570,293528,372144
1629810645123,78590,293504,372087
1629810645133,78591,293537,372097
1629810645143,78608,293547,372126
1629810645153,78618,293571,372134
1629810645163,78630,293578,372117
1629810645173,78658,293602,372141
1629810645183,78660,293606,372151
1629810645193,78679,293622,372118
1629810645203,78696,293617,372157
1629810645213,78718,293622,372119
1629810645223,78708,293552,372058
1629810645233,78696,293559,372028
1629810645243,78684,293499,372035
1629810645253,78668,293467,371949
1629810645263,78635,293462,371983
1629810645273,78621,293432,371955
1629810645283,78598,293399,371897
1629810645293,78587,293391,371922
1629810645303,78577,293377,371904
1629810645313,78550,293342,371934
1629810645323,78548,293379,371918
1629810645333,78524,293302,371905
1629810645343,78511,293340,371901
1629810645353,78489,293316,371935
1629810645363,78475,293297,371887
1629810645373,78444,293275,371889
1629810645383,78445,293260,371898
1629810645393,78386,293185,371905
1629810645403,78406,293176,371857
1629810645413,78376,293203,371856
1629810645423,78350,293151,371819
1629810645433,78335,293185,371857
1629810645443,78315,293153,371840
1629810645453,78288,293147,371814
1629810645463,78273,293095,371862
1629810645473,78255,293119,371825
1629810645483,78239,293104,371826
1629810645493,78231,293115,371822
1629810645503,78220,293040,371818
1629810645513,78219,293093,371870
1629810645523,78208,293082,371863
1629810645533,78220,293113,371863
1629810645543,78210,293093,371846
1629810645553,78192,293082,371858
1629810645563,78178,293067,371868
1629810645573,78188,293067,371857
1629810645583,78186,293077,371852
1629810645593,78180,293050,371850
1629810645603,78185,293065,371874
1629810645613,78177,293050,371817
1629810645623,78173,293094,371868
1629810645633,78181,293048,371843
1629810645643,78172,293074,371844
1629810645653,78170,293103,371876
1629810645663,78157,293080,371874
1629810645673,78158,293066,371913
1629810645683,78166,293104,371860
1629810645693,78181,293116,371927
1629810645703,78170,293129,371876
1629810645713,78191,293100,371881
1629810645723,78194,293091,371900
1629810645733,78207,293101,371894
1629810645743,78207,293143,371887
1629810645753,78211,293106,371882
1629810645763,78224,293141,371935
1629810645773,78223,293129,371923
1629810645783,78223,293135,371897
1629810645793,78257,293125,371950
1629810645803,78252,293144,371890
1629810645813,78246,293173,371932
1629810645823,78251,293190,371846
1629810645833,78260,293178,371877
1629810645843,78262,293228,371880
1629810645853,78291,293202,371903
1629810645863,78297,293182,371940
1629810645873,78320,293217,371975
1629810645883,78307,293229,371914
1629810645893,78311,293288,371936
1629810645903,78335,293233,371940
1629810645913,78338,293254,371980
1629810645923,78357,293297,371931
1629810645933,78369,293324,371946
1629810645943,78368,293304,371959
1629810645953,78377,293304,371958
1629810645963,78389,293315,371976
1629810645973,78412,293362,371977
1629810645983,78405,293358,371989
1629810645993,78424,293364,371990
1629810646003,78449,293362,371965
1629810646013,78464,293409,372019
1629810646023,78462,293426,371984
1629810646033,78470,293385,372006
1629810646043,78492,293377,372024
1629810646053,78512,293431,372035
1629810646063,78520,293485,372022
1629810646073,78546,293435,372022
1629810646083,78544,293463,372025
1629810646093,78558,293489,372057
1629810646103,78572,293490,372019
1629810646113,78579,293497,372042
1629810646123,78599,293541,372061
1629810646133,78609,293553,372070
1629810646143,78626,293543,372065
1629810646153,78634,293580,372053
1629810646163,78655,293589,372036
1629810646173,78673,293568,372066
1629810646183,78707,293619,372092
1629810646193,78709,293621,372054
1629810646203,78716,293593,372058
1629810646213,78719,293573,372049
1629810646223,78712,293540,371982
1629810646233,78690,293518,371963
1629810646243,78673,293496,371927
1629810646253,78649,293437,371934
1629810646263,78605,293370,371916
1629810646273,78582,293354,371890
1629810646283,78561,293309,371851
1629810646293,78524,293325,371824
1629810646303,78515,293283,371865
1629810646313,78507,293287,371856
1629810646323,78489,293256,371846
1629810646333,78457,293258,371836
1629810646343,78442,293229,371828
1629810646353,78435,293252,371819
1629810646363,78407,293200,371815
1629810646373,78380,293136,371800
1629810646383,78342,293167,371819
1629810646393,78320,293166,371782
1629810646403,78293,293117,371761
1629810646413,78249,293080,371726
1629810646423,78246,293068,371786
1629810646433,78218,293045,371753
1629810646443,78181,293072,371767
1629810646453,78152,293026,371775
1629810646463,78132,293012,371750
1629810646473,78100,293024,371739
1629810646483,78091,292965,371769
1629810646493,78071,292994,371741
1629810646503,78087,292987,371727
1629810646513,78069,292996,371817
1629810646523,78031,292983,371800
1629810646533,78043,292968,371762
1629810646543,78028,292960,371739
1629810646553,78020,292988,371774
1629810646563,78009,292965,371787
1629810646573,77997,292961,371766
1629810646583,77974,292913,371741
1629810646593,77976,292893,371817
1629810646603,77978,292944,371815
1629810646613,77969,292960,371752
1629810646623,77947,292934,371785
1629810646633,77940,292968,371796
1629810646643,77936,292959,371791
1629810646653,77937,292961,371817
1629810646663,77931,292949,371876
1629810646673,77945,292937,371794
1629810646683,77948,292938,371834
1629810646693,77937,292955,371818
1629810646703,77931,292983,371809
1629810646713,77943,292968,371801
1629810646723,77953,293012,371830
1629810646733,77952,292974,371816
1629810646743,77949,293028,371833
1629810646753,77934,292969,371853
1629810646763,77949,293015,371851
1629810646773,77948,292971,371854
1629810646783,77959,292990,371854
1629810646793,77972,293039,371863
1629810646803,77968,292995,371852
1629810646813,77982,293051,371841
1629810646823,77992,293025,371871
1629810646833,77988,293045,371863
1629810646843,77998,293041,371844
1629810646853,78011,293082,371856
1629810646863,78008,293115,371925
1629810646873,78026,293107,371909
1629810646883,78033,293132,371922
1629810646893,78038,293142,371883
1629810646903,78038,293137,371902
1629810646913,78042,293135,371939
1629810646923,78070,293200,371969
1629810646933,78071,293147,371923
1629810646943,78077,293166,371916
1629810646953,78094,293175,371890
1629810646963,78096,293195,371940
1629810646973,78106,293190,371956
1629810646983,78146,293203,371930
1629810646993,78136,293216,371942
1629810647003,78161,293217,371951
1629810647013,78160,293241,371957
1629810647023,78179,293272,371947
1629810647033,78182,293245,371973
1629810647043,78189,293293,372000
1629810647053,78214,293275,371938
1629810647063,78226,293294,371978
1629810647073,78232,293319,371967
1629810647083,78240,293358,371961
1629810647093,78262,293373,371972
1629810647103,78279,293350,372065
1629810647113,78283,293350,371997
1629810647123,78303,293383,372017
1629810647133,78318,293422,371982
1629810647143,78331,293409,372005
1629810647153,78334,293403,372016
1629810647163,78357,293467,372054
1629810647173,78378,293472,372060
1629810647183,78379,293427,372072
1629810647193,78409,293457,372039
1629810647203,78425,293468,372066
1629810647213,78438,293477,372041
1629810647223,78433,293461,372032
1629810647233,78431,293457,371997
1629810647243,78425,293458,371987
1629810647253,78402,293375,371962
1629810647263,78361,293355,371898
1629810647273,78339,293359,371881
1629810647283,78300,293304,371835
1629810647293,78276,293272,371837
1629810647303,78247,293230,371847
1629810647313,78212,293233,371844
1629810647323,78211,293224,371849
1629810647333,78192,293214,371831
1629810647343,78161,293135,371814
1629810647353,78133,293131,371850
1629810647363,78114,293097,371820
1629810647373,78083,293124,371805
1629810647383,78053,293115,371777
1629810647393,78022,293081,371773
1629810647403,77993,293034,371781
1629810647413,77955,292983,371799
1629810647423,77926,293009,371748
1629810647433,77912,292943,371749
1629810647443,77867,292945,371794
1629810647453,77835,292930,371757
1629810647463,77811,292921,371738
1629810647473,77806,292906,371751
1629810647483,77758,292845,371759
1629810647493,77743,292856,371763
1629810647503,77721,292825,371725
1629810647513,77689,292867,371744
1629810647523,77702,292841,371784
1629810647533,77670,292835,371753
1629810647543,77667,292877,371809
1629810647553,77648,292833,371743
1629810647563,77631,292843,371779
1629810647573,77623,292815,371789
1629810647583,77599,292808,371790
1629810647593,77587,292801,371783
1629810647603,77584,292852,371792
1629810647613,77565,292804,371752
1629810647623,77568,292790,371797
1629810647633,77560,292790,371801
1629810647643,77549,292863,371778
1629810647653,77549,292863,371828
1629810647663,77536,292819,371847
1629810647673,77527,292828,371859
1629810647683,77538,292810,371829
1629810647693,77534,292829,371852
1629810647703,77535,292855,371840
1629810647713,77532,292868,371859
1629810647723,77522,292893,371830
1629810647733,77531,292848,371878
1629810647743,77533,292799,371881
1629810647753,77532,292879,371873
1629810647763,77540,292898,371842
1629810647773,77550,292872,371927
1629810647783,77539,292873,371878
1629810647793,77561,292885,371885
1629810647803,77564,292920,371883
1629810647813,77569,292840,371879
1629810647823,77585,292936,371909
1629810647833,77572,292930,371933
1629810647843,77592,292931,371927
1629810647853,77583,292953,371891
1629810647863,77604,292935,371938
1629810647873,77608,292958,371929
1629810647883,77602,292958,371931
1629810647893,77619,293004,371955
1629810647903,77632,293042,371936
1629810647913,77642,293054,371955
1629810647923,77653,293044,371990
1629810647933,77649,293043,371974
1629810647943,77677,293065,372027
1629810647953,77679,293084,371976
1629810647963,77688,293068,371976
1629810647973,77701,293093,371996
1629810647983,77703,293066,371997
1629810647993,77715,293141,372012
1629810648003,77744,293126,372006
1629810648013,77739,293090,372037
1629810648023,77750,293132,371994
1629810648033,77766,293157,372037
1629810648043,77779,293157,372056
1629810648053,77797,293167,372080
1629810648063,77802,293181,372068
1629810648073,77818,293182,372032
1629810648083,77810,293229,372074
1629810648093,77832,293213,372042
1629810648103,77839,293221,372096
1629810648113,77860,293267,372073
1629810648123,77875,293315,372046
1629810648133,77897,293294,372107
1629810648143,77906,293317,372058
1629810648153,77944,293331,372099
1629810648163,77941,293363,372151
1629810648173,77958,293328,372085
1629810648183,77968,293360,372148
1629810648193,77987,293316,372130
1629810648203,77997,293416,372110
1629810648213,78011,293414,372150
1629810648223,78012,293412,372147
1629810648233,78022,293407,372093
1629810648243,78017,293400,372034
1629810648253,78004,293344,372030
1629810648263,77980,293261,371993
1629810648273,77946,293253,371969
1629810648283,77916,293227,371956
1629810648293,77902,293194,371978
1629810648303,77854,293177,371908
1629810648313,77838,293105,371919
1629810648323,77814,293114,371914
1629810648333,77786,293098,371937
1629810648343,77767,293111,371944
1629810648353,77739,293084,371940
1629810648363,77709,293087,371933
1629810648373,77673,293011,371907
1629810648383,77661,292998,371935
1629810648393,77632,293014,371882
1629810648403,77624,292997,371885
1629810648413,77589,292972,371873
1629810648423,77570,292930,371917
1629810648433,77529,292918,371857
1629810648443,77516,292937,371861
1629810648453,77498,292889,371861
1629810648463,77460,292897,371892
1629810648473,77441,292865,371867
1629810648483,77420,292787,371890
1629810648493,77408,292861,371865
1629810648503,77393,292830,371875
1629810648513,77393,292823,371872
1629810648523,77368,292836,371884
1629810648533,77354,292847,371899
1629810648543,77355,292823,371901
1629810648553,77351,292840,371899
1629810648563,77348,292844,371894
1629810648573,77337,292853,371893
1629810648583,77314,292819,371875
1629810648593,77331,292819,371907
1629810648603,77311,292803,371851
1629810648613,77294,292801,371906
1629810648623,77291,292768,371938
1629810648633,77293,292833,371911
1629810648643,77278,292808,371920
1629810648653,77273,292825,371947
1629810648663,77273,292794,371937
1629810648673,77279,292839,371958
1629810648683,77265,292846,371910
1629810648693,77262,292791,371944
1629810648703,77272,292826,371945
1629810648713,77267,292837,371946
1629810648723,77267,292862,372005
1629810648733,77283,292830,371966
1629810648743,77280,292850,371980
1629810648753,77285,292850,371958
1629810648763,77280,292844,371954
1629810648773,77304,292857,371986
1629810648783,77292,292883,372004
1629810648793,77312,292866,371998
1629810648803,77324,292886,372040
1629810648813,77328,292855,372027
1629810648823,77331,292878,372028
1629810648833,77324,292901,372006
1629810648843,77341,292886,372034
1629810648853,77353,292925,372006
1629810648863,77344,292918,372028
1629810648873,77352,292897,372038
1629810648883,77365,292930,372010
1629810648893,77378,292965,372045
1629810648903,77388,292966,372053
1629810648913,77398,292978,372053
1629810648923,77415,293012,372084
1629810648933,77419,293024,372083
1629810648943,77430,293041,372083
1629810648953,77452,293003,372116
1629810648963,77461,293096,372121
1629810648973,77477,293053,372121
1629810648983,77483,293052,372112
1629810648993,77493,293044,372081
1629810649003,77499,293038,372092
1629810649013,77506,293076,372108
1629810649023,77514,293078,372131
1629810649033,77534,293073,372129
1629810649043,77549,293101,372110
1629810649053,77563,293143,372137
1629810649063,77572,293109,372121
1629810649073,77589,293149,372142
1629810649083,77604,293200,372160
1629810649093,77622,293207,372167
1629810649103,77610,293213,372143
1629810649113,77645,293238,372174
1629810649123,77666,293249,372187
1629810649133,77664,293212,372191
1629810649143,77703,293232,372183
1629810649153,77697,293274,372193
1629810649163,77699,293262,372204
1629810649173,77695,293187,372102
1629810649183,77686,293185,372111
1629810649193,77659,293132,372065
1629810649203,77624,293116,372056
1629810649213,77593,293026,372005
1629810649223,77579,293035,372001
1629810649233,77545,292987,371986
1629810649243,77524,292992,372019
1629810649253,77497,292995,371966
1629810649263,77491,292962,371998
1629810649273,77467,293002,372012
1629810649283,77469,292975,372004
1629810649293,77462,293015,371985
1629810649303,77423,292931,372016
1629810649313,77409,292936,371993
1629810649323,77394,292938,371983
1629810649333,77362,292845,372005
1629810649343,77351,292886,371956
1629810649353,77324,292834,371950
1629810649363,77308,292836,371975
1629810649373,77289,292832,371948
1629810649383,77269,292828,371972
1629810649393,77264,292814,371949
1629810649403,77259,292784,371957
1629810649413,77237,292817,371975
1629810649423,77249,292798,371979
1629810649433,77225,292839,372027
1629810649443,77226,292815,372019
1629810649453,77240,292821,372013
1629810649463,77215,292804,372024
1629810649473,77216,292790,371982
1629810649483,77229,292812,372026
1629810649493,77223,292777,372039
1629810649503,77205,292797,372030
1629810649513,77210,292795,372024
1629810649523,77201,292805,372046
1629810649533,77210,292795,372022
1629810649543,77212,292778,372029
1629810649553,77204,292810,372051
1629810649563,77210,292846,372031
1629810649573,77204,292819,372060
1629810649583,77204,292802,372074
1629810649593,77210,292842,372063
1629810649603,77230,292823,372085
1629810649613,77224,292811,372038
1629810649623,77230,292891,372100
1629810649633,77240,292888,372121
1629810649643,77250,292862,372092
1629810649653,77244,292865,372103
1629810649663,77260,292818,372113
1629810649673,77267,292883,372077
1629810649683,77276,292902,372129
1629810649693,77286,292918,372093
1629810649703,77287,292881,372146
1629810649713,77297,292914,372137
1629810649723,77306,292944,372111
1629810649733,77318,292905,372125
1629810649743,77315,292963,372166
1629810649753,77354,292945,372172
1629810649763,77344,292995,372175
1629810649773,77351,293032,372178
1629810649783,77378,293019,372156
1629810649793,77365,292991,372215
1629810649803,77398,292974,372130
1629810649813,77409,293073,372188
1629810649823,77427,292999,372170
1629810649833,77437,293054,372201
1629810649843,77449,293083,372215
1629810649853,77461,293079,372194
1629810649863,77480,293077,372216
1629810649873,77490,293135,372211
1629810649883,77506,293104,372280
1629810649893,77506,293109,372223
1629810649903,77536,293095,372244
1629810649913,77544,293165,372228
1629810649923,77572,293167,372247
1629810649933,77575,293134,372246
1629810649943,77596,293186,372261
1629810649953,77594,293206,372239
1629810649963,77619,293212,372288
1629810649973,77636,293219,372266
1629810649983,77647,293260,372271
1629810649993,77663,293249,372315
1629810650003,77682,293264,372299
1629810650013,77714,293276,372314
1629810650023,77729,293291,372321
1629810650033,77751,293295,372336
1629810650043,77751,293318,372314
1629810650053,77756,293276,372277
1629810650063,77756,293269,372262
1629810650073,77724,293238,372205
1629810650083,77736,293172,372211
1629810650093,77689,293155,372167
1629810650103,77672,293122,372118
1629810650113,77660,293130,372169
1629810650123,77640,293060,372144
1629810650133,77620,293104,372125
1629810650143,77596,293065,372139
1629810650153,77593,293037,372153
1629810650163,77569,293007,372139
1629810650173,77552,293028,372129
1629810650183,77531,293020,372071
1629810650193,77517,292951,372133
1629810650203,77515,292980,372081
1629810650213,77503,292951,372072
1629810650223,77471,292923,372095
1629810650233,77466,292902,372071
1629810650243,77432,292892,372069
1629810650253,77437,292864,372066
1629810650263,77418,292863,372039
1629810650273,77399,292850,372053
1629810650283,77377,292832,372094
1629810650293,77370,292829,372063
1629810650303,77358,292840,372057
1629810650313,77347,292807,372059
1629810650323,77327,292754,372091
1629810650333,77318,292831,372055
1629810650343,77335,292841,372090
1629810650353,77327,292785,372123
1629810650363,77322,292823,372084
1629810650373,77313,292829,372081
1629810650383,77312,292852,372115
1629810650393,77341,292839,372136
1629810650403,77347,292815,372079
1629810650413,77337,292810,372124
1629810650423,77325,292823,372124
1629810650433,77339,292823,372123
1629810650443,77346,292798,372161
1629810650453,77335,292809,372163
1629810650463,77333,292811,372131
1629810650473,77338,292821,372163
1629810650483,77336,292840,372163
1629810650493,77348,292854,372160
1629810650503,77372,292819,372184
1629810650513,77367,292853,372183
1629810650523,77383,292835,372175
1629810650533,77389,292840,372160
1629810650543,77392,292895,372174
1629810650553,77398,292890,372238
1629810650563,77416,292882,372189
1629810650573,77432,292886,372229
1629810650583,77437,292910,372193
1629810650593,77457,292925,372260
1629810650603,77456,292955,372217
1629810650613,77475,292934,372202
1629810650623,77499,292950,372242
1629810650633,77494,292942,372222
1629810650643,77510,292953,372237
1629810650653,77528,292971,372234
1629810650663,77534,293011,372246
1629810650673,77549,292964,372224
1629810650683,77564,292980,372266
1629810650693,77576,293039,372298
1629810650703,77578,293038,372268
1629810650713,77590,293018,372316
1629810650723,77607,293059,372289
1629810650733,77648,293075,372315
1629810650743,77650,293112,372321
1629810650753,77670,293100,372326
1629810650763,77685,293090,372303
1629810650773,77703,293113,372326
1629810650783,77711,293102,372338
1629810650793,77717,293171,372309
1629810650803,77743,293196,372330
1629810650813,77766,293147,372381
1629810650823,77773,293247,372348
1629810650833,77786,293206,372344
1629810650843,77798,293210,372400
1629810650853,77813,293240,372381
1629810650863,77837,293255,372396
1629810650873,77866,293234,372391
1629810650883,77870,293314,372427
1629810650893,77894,293278,372420
1629810650903,77909,293342,372402
1629810650913,77954,293289,372432
1629810650923,77953,293321,372411
1629810650933,77971,293340,372452
1629810650943,77987,293369,372420
1629810650953,78005,293415,372414
1629810650963,78011,293440,372401
1629810650973,78040,293428,372449
1629810650983,78053,293436,372451
1629810650993,78065,293472,372510
1629810651003,78112,293447,372482
1629810651013,78103,293465,372465
1629810651023,78089,293462,372376
1629810651033,78103,293378,372372
1629810651043,78097,293339,372340
1629810651053,78074,293318,372326
1629810651063,78050,293278,372342
1629810651073,78040,293243,372312
1629810651083,78024,293253,372275
1629810651093,78006,293225,372302
1629810651103,77996,293217,372296
