timestamp,green,ir,red
1629897192370,49988,236418,263408
1629897192380,50001,236411,263418
1629897192390,50001,236467,263424
1629897192400,50008,236463,263413
1629897192410,49999,236450,263445
1629897192420,50000,236483,263395
1629897192430,49997,236462,263425
1629897192440,50011,236464,263373
1629897192450,50002,236458,263403
1629897192460,50007,236435,263387
1629897192470,50008,236469,263389
1629897192480,49999,236484,263414
1629897192490,50010,236494,263429
1629897192500,50002,236465,263385
1629897192510,50007,236518,263392
1629897192520,50013,236472,263407
1629897192530,50016,236485,263401
1629897192540,50027,236475,263412
1629897192550,50028,236492,263396
1629897192560,50032,236512,263396
1629897192570,50041,236542,263424
1629897192580,50054,236573,263448
1629897192590,50061,236595,263467
1629897192600,50060,236646,263480
1629897192610,50064,236632,263430
1629897192620,50067,236609,263385
1629897192630,50072,236560,263413
1629897192640,50066,236593,263350
1629897192650,50068,236506,263276
1629897192660,50069,236478,263245
1629897192670,50073,236497,263225
1629897192680,50064,236426,263177
1629897192690,50066,236401,263091
1629897192700,50060,236373,262999
1629897192710,50054,236266,262917
1629897192720,50055,236174,262828
1629897192730,50045,236108,262705
1629897192740,50048,236045,262609
1629897192750,50032,235968,262534
1629897192760,50022,235911,262458
1629897192770,50023,235866,262405
1629897192780,50012,235794,262292
1629897192790,50004,235731,262181
1629897192800,49989,235680,262126
1629897192810,49982,235674,262070
1629897192820,49999,235645,262060
1629897192830,49983,235622,261993
1629897192840,49981,235600,261952
1629897192850,49983,235587,261914
1629897192860,49987,235552,261827
1629897192870,49993,235480,261792
1629897192880,49990,235516,261762
1629897192890,49989,235502,261763
1629897192900,49991,235478,261707
1629897192910,49974,235435,261681
1629897192920,49971,235367,261654
1629897192930,49965,235221,261573
1629897192940,49926,235175,261541
1629897192950,49889,235112,261498
1629897192960,49864,235081,261520
1629897192970,49833,235019,261496
1629897192980,49807,234993,261515
1629897192990,49788,234995,261507
1629897193000,49768,234994,261516
1629897193010,49755,235000,261504
1629897193020,49744,234961,261527
1629897193030,49738,234977,261461
1629897193040,49733,234946,261480
1629897193050,49716,234954,261456
1629897193060,49707,234942,261440
1629897193070,49689,234911,261458
1629897193080,49667,234915,261491
1629897193090,49668,234909,261455
1629897193100,49663,234858,261456
1629897193110,49650,234888,261426
1629897193120,49648,234866,261445
1629897193130,49646,234919,261426
1629897193140,49629,234882,261416
1629897193150,49621,234938,261441
1629897193160,49621,234922,261415
1629897193170,49623,234920,261450
1629897193180,49625,234938,261462
1629897193190,49625,235009,261475
1629897193200,49634,234947,261483
1629897193210,49640,235019,261512
1629897193220,49644,235023,261511
1629897193230,49652,235085,261584
1629897193240,49665,235103,261651
1629897193250,49657,235130,261677
1629897193260,49676,235181,261711
1629897193270,49676,235250,261758
1629897193280,49689,235258,261774
1629897193290,49699,235262,261796
1629897193300,49704,235332,261871
1629897193310,49715,235395,261881
1629897193320,49730,235405,261941
1629897193330,49740,235430,261985
1629897193340,49757,235482,262014
1629897193350,49779,235561,262085
1629897193360,49781,235588,262061
1629897193370,49805,235610,262104
1629897193380,49819,235645,262118
1629897193390,49835,235691,262177
1629897193400,49844,235761,262213
1629897193410,49859,235776,262257
1629897193420,49874,235848,262289
1629897193430,49885,235880,262361
1629897193440,49910,235948,262421
1629897193450,49912,236026,262476
1629897193460,49945,236100,262519
1629897193470,49957,236131,262589
1629897193480,49979,236205,262641
1629897193490,49986,236290,262704
1629897193500,50001,236319,262777
1629897193510,50016,236347,262780
1629897193520,50032,236397,262845
1629897193530,50044,236418,262870
1629897193540,50057,236475,262891
1629897193550,50070,236532,262927
1629897193560,50091,236575,263001
1629897193570,50111,236585,263026
1629897193580,50121,236666,263068
1629897193590,50134,236681,263075
1629897193600,50160,236685,263134
1629897193610,50174,236791,263193
1629897193620,50195,236850,263256
1629897193630,50210,236881,263260
1629897193640,50232,236894,263303
1629897193650,50244,236986,263381
1629897193660,50265,236969,263351
1629897193670,50280,237004,263398
1629897193680,50292,237056,263383
1629897193690,50309,237020,263396
1629897193700,50314,237038,263397
1629897193710,50319,237011,263395
1629897193720,50322,236931,263368
1629897193730,50309,236821,263277
1629897193740,50288,236752,263276
1629897193750,50262,236688,263251
1629897193760,50227,236598,263255
1629897193770,50202,236599,263201
1629897193780,50179,236587,263245
1629897193790,50164,236532,263249
1629897193800,50150,236529,263228
1629897193810,50140,236532,263259
1629897193820,50130,236522,263274
1629897193830,50121,236529,263272
1629897193840,50111,236529,263271
1629897193850,50105,236530,263304
1629897193860,50104,236516,263307
1629897193870,50097,236550,263348
1629897193880,50098,236548,263348
1629897193890,50088,236556,263400
1629897193900,50076,236589,263372
1629897193910,50067,236564,263380
1629897193920,50062,236583,263438
1629897193930,50048,236554,263394
1629897193940,50037,236592,263419
1629897193950,50039,236571,263350
1629897193960,50029,236591,263397
1629897193970,50032,236563,263389
1629897193980,50035,236548,263358
1629897193990,50032,236539,263359
1629897194000,50032,236559,263334
1629897194010,50029,236571,263370
1629897194020,50031,236567,263367
1629897194030,50041,236546,263342
1629897194040,50039,236556,263337
1629897194050,50040,236548,263322
1629897194060,50031,236557,263326
1629897194070,50036,236537,263296
1629897194080,50038,236529,263278
1629897194090,50038,236474,263285
1629897194100,50032,236513,263305
1629897194110,50039,236511,263276
1629897194120,50041,236519,263294
1629897194130,50053,236523,263274
1629897194140,50058,236530,263294
1629897194150,50065,236567,263326
1629897194160,50074,236586,263327
1629897194170,50086,236644,263349
1629897194180,50093,236660,263367
1629897194190,50104,236692,263401
1629897194200,50127,236694,263372
1629897194210,50133,236695,263405
1629897194220,50137,236783,263413
1629897194230,50151,236805,263446
1629897194240,50174,236761,263439
1629897194250,50173,236800,263459
1629897194260,50182,236836,263457
1629897194270,50190,236846,263464
1629897194280,50194,236892,263466
1629897194290,50206,236890,263478
1629897194300,50223,236928,263496
1629897194310,50236,236908,263509
1629897194320,50242,236932,263518
1629897194330,50246,236945,263508
1629897194340,50269,236978,263579
1629897194350,50280,236937,263535
1629897194360,50287,237018,263529
1629897194370,50306,237040,263574
1629897194380,50314,237043,263591
1629897194390,50318,237000,263562
1629897194400,50323,237075,263603
1629897194410,50335,237104,263559
1629897194420,50349,237075,263577
1629897194430,50364,237112,263622
1629897194440,50376,237118,263605
1629897194450,50375,237117,263601
1629897194460,50394,237146,263589
1629897194470,50397,237127,263575
1629897194480,50404,237148,263580
1629897194490,50421,237158,263553
1629897194500,50416,237075,263519
1629897194510,50411,237025,263481
1629897194520,50384,236953,263431
1629897194530,50362,236833,263371
1629897194540,50336,236744,263335
1629897194550,50300,236675,263339
1629897194560,50288,236630,263293
1629897194570,50261,236601,263296
1629897194580,50234,236607,263300
1629897194590,50217,236588,263292
1629897194600,50201,236549,263251
1629897194610,50192,236559,263307
1629897194620,50186,236572,263284
1629897194630,50181,236522,263268
1629897194640,50178,236571,263282
1629897194650,50172,236555,263262
1629897194660,50164,236573,263287
1629897194670,50153,236517,263281
1629897194680,50147,236529,263302
1629897194690,50143,236562,263294
1629897194700,50128,236570,263296
1629897194710,50135,236563,263325
1629897194720,50130,236591,263325
1629897194730,50117,236608,263331
1629897194740,50121,236579,263321
1629897194750,50132,236603,263322
1629897194760,50126,236614,263357
1629897194770,50128,236626,263375
1629897194780,50133,236632,263362
1629897194790,50134,236612,263316
1629897194800,50131,236611,263341
1629897194810,50138,236613,263343
1629897194820,50126,236582,263291
1629897194830,50136,236593,263335
1629897194840,50140,236589,263326
1629897194850,50135,236594,263354
1629897194860,50154,236593,263321
1629897194870,50144,236656,263353
1629897194880,50141,236642,263369
1629897194890,50147,236687,263404
1629897194900,50151,236671,263356
1629897194910,50150,236700,263372
1629897194920,50163,236670,263404
1629897194930,50169,236707,263422
1629897194940,50178,236765,263423
1629897194950,50189,236774,263411
1629897194960,50210,236810,263460
1629897194970,50211,236833,263466
1629897194980,50228,236848,263496
1629897194990,50233,236845,263501
1629897195000,50236,236860,263476
1629897195010,50247,236869,263499
1629897195020,50259,236906,263489
1629897195030,50266,236891,263543
1629897195040,50295,236945,263538
1629897195050,50298,236945,263528
1629897195060,50292,236956,263542
1629897195070,50307,236963,263570
1629897195080,50314,237003,263597
1629897195090,50321,237034,263587
1629897195100,50340,237062,263565
1629897195110,50346,237033,263571
1629897195120,50349,237045,263601
1629897195130,50361,237037,263584
1629897195140,50369,237093,263593
1629897195150,50387,237099,263622
1629897195160,50392,237109,263620
1629897195170,50393,237085,263623
1629897195180,50407,237121,263602
1629897195190,50417,237146,263647
1629897195200,50434,237115,263593
1629897195210,50447,237177,263641
1629897195220,50441,237167,263638
1629897195230,50448,237113,263597
1629897195240,50441,237046,263565
1629897195250,50420,236980,263527
1629897195260,50391,236876,263513
1629897195270,50361,236837,263500
1629897195280,50327,236782,263502
1629897195290,50304,236742,263502
1629897195300,50281,236738,263509
1629897195310,50256,236748,263488
1629897195320,50236,236728,263536
1629897195330,50224,236716,263533
1629897195340,50213,236709,263478
1629897195350,50196,236706,263499
1629897195360,50176,236718,263491
1629897195370,50174,236700,263529
1629897195380,50157,236672,263536
1629897195390,50140,236665,263470
1629897195400,50130,236672,263542
1629897195410,50115,236667,263492
1629897195420,50098,236630,263539
1629897195430,50086,236628,263528
1629897195440,50073,236655,263487
1629897195450,50067,236654,263498
1629897195460,50056,236637,263517
1629897195470,50047,236631,263501
1629897195480,50039,236657,263506
1629897195490,50043,236650,263530
1629897195500,50050,236661,263514
1629897195510,50048,236716,263534
1629897195520,50038,236667,263517
1629897195530,50032,236661,263510
1629897195540,50031,236669,263525
1629897195550,50038,236671,263520
1629897195560,50020,236658,263508
1629897195570,50035,236664,263511
1629897195580,50030,236680,263483
1629897195590,50025,236674,263517
1629897195600,50022,236651,263540
1629897195610,50024,236689,263499
1629897195620,50029,236690,263509
1629897195630,50031,236702,263519
1629897195640,50033,236685,263549
1629897195650,50035,236700,263534
1629897195660,50039,236701,263490
1629897195670,50054,236730,263569
1629897195680,50062,236810,263596
1629897195690,50060,236812,263541
1629897195700,50070,236822,263570
1629897195710,50091,236799,263559
1629897195720,50094,236805,263579
1629897195730,50093,236811,263595
1629897195740,50104,236823,263604
1629897195750,50110,236903,263642
1629897195760,50120,236863,263628
1629897195770,50124,236878,263627
1629897195780,50131,236897,263658
1629897195790,50144,236918,263669
1629897195800,50151,236913,263656
1629897195810,50162,236943,263639
1629897195820,50170,236911,263663
1629897195830,50184,236928,263651
1629897195840,50179,236930,263680
1629897195850,50195,236945,263647
1629897195860,50209,236980,263681
1629897195870,50207,236998,263685
1629897195880,50224,237016,263675
1629897195890,50226,237052,263692
1629897195900,50231,237058,263692
1629897195910,50254,237076,263699
1629897195920,50256,237057,263735
1629897195930,50275,237072,263717
1629897195940,50284,237112,263701
1629897195950,50282,237072,263705
1629897195960,50284,237023,263669
1629897195970,50265,236938,263624
1629897195980,50233,236838,263593
1629897195990,50198,236791,263545
1629897196000,50167,236708,263551
1629897196010,50134,236680,263519
1629897196020,50109,236639,263522
1629897196030,50066,236662,263551
1629897196040,50038,236619,263571
1629897196050,50014,236605,263547
1629897196060,50001,236572,263552
1629897196070,49983,236578,263574
1629897196080,49958,236590,263550
1629897196090,49937,236539,263573
1629897196100,49930,236542,263549
1629897196110,49910,236542,263566
1629897196120,49891,236462,263574
1629897196130,49859,236466,263545
1629897196140,49848,236471,263563
1629897196150,49830,236463,263547
1629897196160,49806,236448,263552
1629897196170,49791,236443,263561
1629897196180,49772,236401,263565
1629897196190,49745,236407,263551
1629897196200,49733,236422,263570
1629897196210,49734,236419,263592
1629897196220,49728,236418,263538
1629897196230,49717,236436,263570
1629897196240,49718,236442,263576
1629897196250,49718,236456,263580
1629897196260,49717,236406,263577
1629897196270,49711,236403,263558
1629897196280,49704,236415,263549
1629897196290,49710,236399,263533
1629897196300,49705,236404,263538
1629897196310,49696,236368,263564
1629897196320,49704,236396,263557
1629897196330,49695,236407,263552
1629897196340,49689,236396,263589
1629897196350,49699,236410,263596
1629897196360,49689,236430,263591
1629897196370,49693,236429,263561
1629897196380,49689,236438,263585
1629897196390,49702,236404,263559
1629897196400,49706,236437,263577
1629897196410,49714,236424,263602
1629897196420,49724,236437,263602
1629897196430,49737,236508,263599
1629897196440,49735,236483,263621
1629897196450,49744,236533,263628
1629897196460,49756,236532,263654
1629897196470,49769,236538,263633
1629897196480,49763,236587,263631
1629897196490,49777,236575,263632
1629897196500,49788,236552,263661
1629897196510,49783,236580,263678
1629897196520,49807,236581,263682
1629897196530,49806,236641,263671
1629897196540,49817,236635,263674
1629897196550,49823,236629,263674
1629897196560,49837,236635,263685
1629897196570,49857,236664,263722
1629897196580,49858,236675,263699
1629897196590,49864,236686,263696
1629897196600,49874,236641,263734
1629897196610,49893,236679,263677
1629897196620,49900,236702,263697
1629897196630,49907,236711,263725
1629897196640,49930,236735,263742
1629897196650,49938,236739,263751
1629897196660,49936,236747,263777
1629897196670,49950,236770,263745
1629897196680,49965,236795,263753
1629897196690,49981,236821,263742
1629897196700,49995,236799,263780
1629897196710,49998,236818,263756
1629897196720,50013,236838,263735
1629897196730,50012,236775,263738
1629897196740,50006,236715,263697
1629897196750,49991,236658,263651
1629897196760,49950,236547,263587
1629897196770,49921,236493,263577
1629897196780,49880,236437,263550
1629897196790,49854,236348,263543
1629897196800,49826,236344,263542
1629897196810,49808,236384,263533
1629897196820,49773,236347,263552
1629897196830,49761,236298,263535
1629897196840,49720,236320,263535
1629897196850,49704,236281,263570
1629897196860,49690,236242,263533
1629897196870,49663,236255,263531
1629897196880,49642,236231,263495
1629897196890,49614,236201,263499
1629897196900,49585,236139,263523
1629897196910,49571,236176,263497
1629897196920,49557,236131,263494
1629897196930,49530,236109,263500
1629897196940,49516,236121,263498
1629897196950,49493,236074,263478
1629897196960,49481,236036,263505
1629897196970,49462,236025,263522
1629897196980,49453,236035,263484
1629897196990,49455,236042,263521
1629897197000,49442,236076,263493
1629897197010,49433,236045,263489
1629897197020,49444,236070,263522
1629897197030,49440,236089,263510
1629897197040,49444,236070,263506
1629897197050,49437,236078,263481
1629897197060,49439,236060,263502
1629897197070,49441,236008,263485
1629897197080,49436,236035,263459
1629897197090,49440,236015,263470
1629897197100,49433,236041,263493
1629897197110,49432,236019,263476
1629897197120,49427,236003,263470
1629897197130,49429,235993,263478
1629897197140,49439,236030,263467
1629897197150,49443,236049,263477
1629897197160,49446,236039,263469
1629897197170,49445,236073,263464
1629897197180,49460,236069,263491
1629897197190,49462,236125,263503
1629897197200,49475,236103,263489
1629897197210,49483,236120,263535
1629897197220,49495,236144,263524
1629897197230,49495,236149,263541
1629897197240,49512,236156,263553
1629897197250,49519,236161,263537
1629897197260,49534,236189,263576
1629897197270,49538,236233,263543
1629897197280,49555,236232,263568
1629897197290,49563,236246,263583
1629897197300,49570,236268,263594
1629897197310,49580,236282,263558
1629897197320,49594,236290,263603
1629897197330,49597,236282,263615
1629897197340,49602,236317,263633
1629897197350,49615,236332,263639
1629897197360,49630,236347,263595
1629897197370,49643,236355,263635
1629897197380,49660,236351,263643
1629897197390,49660,236362,263635
1629897197400,49672,236391,263640
1629897197410,49685,236339,263614
1629897197420,49690,236417,263620
1629897197430,49697,236386,263596
1629897197440,49695,236407,263632
1629897197450,49705,236408,263587
1629897197460,49712,236379,263577
1629897197470,49729,236401,263561
1629897197480,49722,236449,263572
1629897197490,49736,236408,263587
1629897197500,49742,236439,263562
1629897197510,49749,236419,263543
1629897197520,49763,236411,263559
1629897197530,49789,236463,263539
1629897197540,49791,236469,263566
1629897197550,49798,236457,263546
1629897197560,49799,236390,263471
1629897197570,49789,236371,263514
1629897197580,49763,236261,263396
1629897197590,49750,236218,263383
1629897197600,49728,236180,263372
1629897197610,49694,236100,263372
1629897197620,49685,236104,263364
1629897197630,49661,236117,263410
1629897197640,49642,236101,263399
1629897197650,49626,236087,263404
1629897197660,49609,236052,263390
1629897197670,49597,236046,263394
1629897197680,49585,236010,263407
1629897197690,49578,236036,263412
1629897197700,49561,235990,263404
1629897197710,49550,235972,263401
1629897197720,49546,235979,263423
1629897197730,49533,235986,263429
1629897197740,49510,235988,263416
1629897197750,49512,236002,263402
1629897197760,49505,235937,263430
1629897197770,49497,235981,263449
1629897197780,49491,235965,263418
1629897197790,49486,235972,263454
1629897197800,49489,235963,263413
1629897197810,49472,235957,263465
1629897197820,49485,235949,263474
1629897197830,49486,235996,263464
1629897197840,49494,235969,263488
1629897197850,49500,235996,263456
1629897197860,49503,236025,263464
1629897197870,49500,235955,263489
1629897197880,49504,236000,263469
1629897197890,49507,235987,263476
1629897197900,49517,235965,263459
1629897197910,49517,236024,263483
1629897197920,49521,236043,263491
1629897197930,49530,235989,263495
1629897197940,49527,236031,263450
1629897197950,49539,236036,263487
1629897197960,49537,236014,263511
1629897197970,49556,236051,263487
1629897197980,49549,236080,263465
1629897197990,49568,236068,263509
1629897198000,49569,236102,263509
1629897198010,49573,236108,263506
1629897198020,49590,236133,263510
1629897198030,49601,236118,263529
1629897198040,49606,236157,263554
1629897198050,49619,236162,263531
1629897198060,49629,236169,263574
1629897198070,49644,236163,263544
1629897198080,49655,236209,263590
1629897198090,49668,236228,263587
1629897198100,49669,236231,263597
1629897198110,49684,236225,263614
1629897198120,49704,236218,263619
1629897198130,49718,236264,263659
1629897198140,49732,236296,263613
1629897198150,49745,236286,263610
1629897198160,49753,236304,263615
1629897198170,49769,236368,263663
1629897198180,49786,236344,263632
1629897198190,49792,236388,263681
1629897198200,49806,236378,263657
1629897198210,49823,236425,263658
1629897198220,49831,236387,263660
1629897198230,49851,236402,263652
1629897198240,49863,236440,263675
1629897198250,49875,236431,263669
1629897198260,49893,236452,263674
1629897198270,49901,236476,263707
1629897198280,49920,236514,263705
1629897198290,49940,236521,263698
1629897198300,49959,236513,263730
1629897198310,49967,236538,263705
1629897198320,49983,236580,263748
1629897198330,49990,236592,263752
1629897198340,50022,236622,263774
1629897198350,50027,236598,263771
1629897198360,50044,236634,263766
1629897198370,50058,236649,263754
1629897198380,50072,236634,263768
1629897198390,50089,236663,263791
1629897198400,50090,236631,263750
1629897198410,50096,236579,263692
1629897198420,50079,236508,263714
1629897198430,50067,236453,263642
1629897198440,50067,236413,263642
1629897198450,50042,236392,263681
1629897198460,50038,236359,263683
1629897198470,50023,236324,263666
1629897198480,50007,236329,263698
1629897198490,50003,236324,263695
1629897198500,49986,236351,263695
1629897198510,49994,236314,263693
1629897198520,49992,236307,263691
1629897198530,49981,236309,263707
1629897198540,49993,236280,263699
1629897198550,49982,236284,263672
1629897198560,49975,236276,263688
1629897198570,49962,236262,263694
1629897198580,49957,236266,263671
1629897198590,49948,236285,263690
1629897198600,49951,236274,263666
1629897198610,49952,236262,263696
1629897198620,49946,236277,263704
1629897198630,49949,236273,263680
1629897198640,49940,236256,263696
1629897198650,49946,236303,263716
1629897198660,49952,236308,263700
1629897198670,49952,236282,263706
1629897198680,49967,236337,263706
1629897198690,49980,236308,263721
1629897198700,49983,236266,263722
1629897198710,49985,236323,263726
1629897198720,49986,236277,263699
1629897198730,50005,236344,263740
1629897198740,50003,236338,263717
1629897198750,50011,236351,263715
1629897198760,50009,236354,263739
1629897198770,50023,236334,263748
1629897198780,50016,236360,263749
1629897198790,50036,236391,263749
1629897198800,50036,236407,263730
1629897198810,50041,236397,263739
1629897198820,50053,236372,263752
1629897198830,50064,236415,263748
1629897198840,50080,236427,263756
1629897198850,50089,236474,263795
1629897198860,50104,236450,263774
1629897198870,50111,236495,263764
1629897198880,50124,236514,263798
1629897198890,50138,236498,263814
1629897198900,50150,236533,263823
1629897198910,50151,236556,263828
1629897198920,50161,236567,263827
1629897198930,50175,236545,263826
1629897198940,50184,236574,263875
1629897198950,50189,236629,263856
1629897198960,50214,236593,263837
1629897198970,50230,236616,263877
1629897198980,50235,236609,263849
1629897198990,50244,236675,263851
1629897199000,50250,236667,263870
1629897199010,50268,236695,263889
1629897199020,50284,236694,263904
1629897199030,50294,236724,263920
1629897199040,50310,236725,263906
1629897199050,50315,236741,263885
1629897199060,50339,236764,263912
1629897199070,50351,236800,263936
1629897199080,50356,236827,263927
1629897199090,50371,236802,263949
1629897199100,50378,236820,263977
1629897199110,50394,236868,263946
1629897199120,50410,236890,263963
1629897199130,50425,236906,263955
1629897199140,50445,236928,263974
1629897199150,50456,236876,263978
1629897199160,50464,236955,264004
1629897199170,50479,236978,263989
1629897199180,50487,236966,263991
1629897199190,50511,236921,263985
1629897199200,50508,236927,263944
1629897199210,50514,236859,263930
1629897199220,50506,236809,263901
1629897199230,50487,236764,263877
1629897199240,50488,236703,263889
1629897199250,50467,236683,263878
1629897199260,50463,236690,263862
1629897199270,50458,236652,263903
1629897199280,50456,236637,263879
1629897199290,50458,236689,263871
1629897199300,50445,236642,263923
1629897199310,50448,236658,263919
1629897199320,50449,236661,263913
1629897199330,50457,236676,263916
1629897199340,50443,236646,263890
1629897199350,50443,236606,263906
1629897199360,50448,236631,263896
1629897199370,50457,236662,263931
1629897199380,50453,236641,263959
1629897199390,50445,236634,263913
1629897199400,50449,236625,263909
1629897199410,50450,236616,263919
1629897199420,50459,236617,263911
1629897199430,50461,236625,263956
1629897199440,50464,236665,263937
1629897199450,50462,236680,263921
1629897199460,50476,236677,263960
1629897199470,50481,236687,263917
1629897199480,50487,236727,263968
1629897199490,50494,236678,263939
1629897199500,50492,236697,263927
1629897199510,50493,236730,263931
1629897199520,50506,236720,263928
1629897199530,50519,236702,263937
1629897199540,50519,236761,263906
1629897199550,50523,236690,263942
1629897199560,50528,236718,263965
1629897199570,50536,236712,263949
1629897199580,50535,236749,263945
1629897199590,50547,236744,263934
1629897199600,50559,236790,263925
1629897199610,50565,236769,263963
1629897199620,50572,236784,263969
1629897199630,50584,236797,263956
1629897199640,50597,236803,263972
1629897199650,50610,236851,263978
1629897199660,50609,236824,263981
1629897199670,50617,236821,264017
1629897199680,50637,236876,264001
1629897199690,50640,236892,263994
1629897199700,50646,236919,263991
1629897199710,50670,236935,264007
1629897199720,50677,236941,264039
1629897199730,50693,236908,264009
1629897199740,50697,236946,264047
1629897199750,50693,236961,264012
1629897199760,50712,236964,264058
1629897199770,50725,236994,264038
1629897199780,50734,236995,264058
1629897199790,50742,237006,264039
1629897199800,50757,237028,264047
1629897199810,50764,237048,264090
1629897199820,50770,237065,264086
1629897199830,50788,237085,264065
1629897199840,50803,237062,264089
1629897199850,50811,237113,264079
1629897199860,50836,237114,264080
1629897199870,50829,237141,264088
1629897199880,50837,237155,264096
1629897199890,50868,237177,264117
1629897199900,50858,237201,264122
1629897199910,50874,237210,264101
1629897199920,50893,237225,264100
1629897199930,50891,237221,264111
1629897199940,50896,237190,264098
1629897199950,50912,237181,264065
1629897199960,50916,237144,264077
1629897199970,50905,237074,264048
1629897199980,50888,237016,263996
1629897199990,50886,236942,263972
1629897200000,50873,236947,263987
1629897200010,50860,236907,263976
1629897200020,50843,236902,263994
1629897200030,50838,236921,263956
1629897200040,50839,236857,264008
1629897200050,50824,236876,264007
1629897200060,50821,236868,264011
1629897200070,50830,236859,264011
1629897200080,50818,236857,264041
1629897200090,50816,236859,264023
1629897200100,50808,236873,263995
1629897200110,50801,236851,264000
1629897200120,50807,236835,263976
1629897200130,50798,236845,264029
1629897200140,50790,236818,263989
1629897200150,50788,236772,264027
1629897200160,50785,236826,264010
1629897200170,50782,236818,264008
1629897200180,50770,236824,263974
1629897200190,50771,236824,264013
1629897200200,50776,236821,264060
1629897200210,50787,236860,264026
1629897200220,50778,236826,264033
1629897200230,50786,236884,264041
1629897200240,50784,236862,264030
1629897200250,50796,236874,264031
1629897200260,50795,236850,264009
1629897200270,50791,236878,263991
1629897200280,50804,236834,263987
1629897200290,50794,236859,263996
1629897200300,50806,236862,264010
1629897200310,50800,236867,264001
1629897200320,50813,236866,263983
1629897200330,50825,236894,263986
1629897200340,50815,236880,264020
1629897200350,50826,236881,264023
1629897200360,50825,236895,264036
1629897200370,50830,236937,264016
1629897200380,50844,236897,264026
1629897200390,50866,236929,263994
1629897200400,50860,236932,264025
1629897200410,50857,236971,263986
1629897200420,50873,236966,264048
1629897200430,50882,237018,264047
1629897200440,50890,237045,264057
1629897200450,50894,237033,264054
1629897200460,50912,237028,264069
1629897200470,50914,237048,264061
1629897200480,50939,237042,264080
1629897200490,50949,237097,264058
1629897200500,50959,237097,264078
1629897200510,50967,237131,264098
1629897200520,50963,237118,264104
1629897200530,50974,237131,264120
1629897200540,50985,237161,264106
1629897200550,50986,237135,264099
1629897200560,51007,237180,264115
1629897200570,51010,237159,264121
1629897200580,51017,237180,264121
1629897200590,51023,237206,264108
1629897200600,51034,237218,264140
1629897200610,51038,237221,264149
1629897200620,51049,237229,264127
1629897200630,51063,237237,264142
1629897200640,51067,237262,264140
1629897200650,51073,237255,264151
1629897200660,51091,237295,264148
1629897200670,51099,237289,264155
1629897200680,51106,237290,264158
1629897200690,51116,237338,264160
1629897200700,51122,237328,264141
1629897200710,51139,237326,264166
1629897200720,51148,237377,264165
1629897200730,51157,237370,264106
1629897200740,51152,237336,264113
1629897200750,51167,237304,264072
1629897200760,51171,237282,264088
1629897200770,51166,237214,264109
1629897200780,51147,237160,264033
1629897200790,51128,237118,264004
1629897200800,51111,237034,263974
1629897200810,51102,237036,263983
1629897200820,51076,236971,264020
1629897200830,51063,236989,263992
1629897200840,51057,236976,264020
1629897200850,51043,237004,264012
1629897200860,51035,236960,264067
1629897200870,51019,236972,264023
1629897200880,51004,236978,264036
1629897200890,51002,236930,264023
1629897200900,50985,236909,264007
1629897200910,50955,236912,264021
1629897200920,50945,236902,263990
1629897200930,50928,236873,264018
1629897200940,50917,236847,264003
1629897200950,50901,236843,263984
1629897200960,50893,236855,263974
1629897200970,50879,236822,263974
1629897200980,50858,236822,263999
1629897200990,50847,236782,263959
1629897201000,50838,236855,264005
1629897201010,50810,236821,264031
1629897201020,50819,236825,263996
1629897201030,50810,236816,263988
1629897201040,50792,236845,263982
1629897201050,50802,236825,264015
1629897201060,50787,236821,264006
1629897201070,50799,236781,263971
1629897201080,50778,236758,263981
1629897201090,50772,236797,263922
1629897201100,50781,236802,263961
1629897201110,50772,236778,263971
1629897201120,50767,236800,263952
1629897201130,50768,236823,263972
1629897201140,50758,236811,263975
1629897201150,50770,236801,263955
1629897201160,50758,236783,263945
1629897201170,50761,236801,263944
1629897201180,50763,236842,263934
1629897201190,50766,236794,263919
1629897201200,50757,236810,263946
1629897201210,50773,236858,263976
1629897201220,50773,236885,263951
1629897201230,50769,236860,263920
1629897201240,50776,236859,263972
1629897201250,50780,236872,264013
1629897201260,50774,236887,263986
1629897201270,50783,236885,264004
1629897201280,50780,236924,263970
1629897201290,50799,236954,264017
1629897201300,50798,236926,263983
1629897201310,50806,236954,263989
1629897201320,50816,236954,263979
1629897201330,50812,236984,264024
1629897201340,50819,237004,264043
1629897201350,50832,236955,264005
1629897201360,50840,237014,264012
1629897201370,50837,236998,264005
1629897201380,50845,236998,263997
1629897201390,50849,237023,264010
1629897201400,50854,237007,264034
1629897201410,50861,237057,264047
1629897201420,50862,237045,264002
1629897201430,50869,237059,264030
1629897201440,50873,237040,264048
1629897201450,50890,237051,264035
1629897201460,50893,237096,264018
1629897201470,50900,237103,264045
1629897201480,50912,237118,264047
1629897201490,50913,237136,264074
1629897201500,50920,237095,264036
1629897201510,50923,237122,264040
1629897201520,50931,237158,264025
1629897201530,50940,237198,264044
1629897201540,50940,237194,264075
1629897201550,50950,237199,264068
1629897201560,50967,237206,264050
1629897201570,50972,237244,264061
1629897201580,50975,237225,264045
1629897201590,50984,237195,264037
1629897201600,50981,237145,264037
1629897201610,50974,237140,263990
1629897201620,50960,237033,263943
1629897201630,50922,236923,263897
1629897201640,50890,236854,263901
1629897201650,50864,236826,263866
1629897201660,50834,236778,263878
1629897201670,50808,236797,263888
1629897201680,50779,236755,263900
1629897201690,50753,236758,263918
1629897201700,50735,236743,263896
1629897201710,50704,236715,263882
1629897201720,50685,236732,263894
1629897201730,50660,236703,263888
1629897201740,50626,236669,263846
1629897201750,50594,236670,263833
1629897201760,50587,236632,263842
1629897201770,50555,236591,263837
1629897201780,50534,236594,263859
1629897201790,50506,236590,263817
1629897201800,50482,236540,263826
1629897201810,50454,236554,263817
1629897201820,50432,236498,263818
1629897201830,50406,236504,263780
1629897201840,50396,236482,263781
1629897201850,50382,236499,263819
1629897201860,50371,236526,263796
1629897201870,50357,236457,263811
1629897201880,50341,236485,263811
1629897201890,50337,236485,263784
1629897201900,50336,236510,263784
1629897201910,50328,236498,263782
1629897201920,50322,236455,263759
1629897201930,50308,236472,263751
1629897201940,50315,236463,263768
1629897201950,50301,236464,263741
1629897201960,50290,236454,263777
1629897201970,50294,236471,263762
1629897201980,50290,236478,263800
1629897201990,50282,236459,263786
1629897202000,50285,236502,263777
1629897202010,50292,236523,263782
1629897202020,50280,236513,263765
1629897202030,50276,236467,263764
1629897202040,50278,236507,263779
1629897202050,50282,236528,263774
1629897202060,50291,236495,263779
1629897202070,50288,236530,263799
1629897202080,50286,236535,263807
1629897202090,50288,236570,263799
1629897202100,50304,236561,263812
1629897202110,50300,236531,263798
1629897202120,50307,236571,263812
1629897202130,50316,236540,263820
1629897202140,50321,236589,263805
1629897202150,50338,236613,263801
1629897202160,50324,236614,263809
1629897202170,50333,236627,263811
1629897202180,50335,236606,263819
1629897202190,50347,236630,263858
1629897202200,50350,236648,263831
1629897202210,50365,236685,263852
1629897202220,50375,236668,263853
1629897202230,50370,236679,263859
1629897202240,50380,236656,263847
1629897202250,50387,236677,263836
1629897202260,50402,236690,263817
1629897202270,50402,236707,263826
1629897202280,50420,236731,263799
1629897202290,50433,236715,263819
1629897202300,50435,236719,263832
1629897202310,50448,236758,263854
1629897202320,50443,236786,263831
1629897202330,50465,236773,263840
1629897202340,50468,236783,263817
1629897202350,50484,236793,263875
1629897202360,50491,236785,263887
1629897202370,50486,236804,263852
1629897202380,50508,236811,263866
1629897202390,50516,236828,263890
1629897202400,50516,236842,263891
1629897202410,50533,236880,263859
1629897202420,50544,236877,263885
1629897202430,50558,236874,263887
1629897202440,50568,236887,263871
1629897202450,50579,236886,263876
1629897202460,50586,236892,263847
1629897202470,50592,236823,263842
1629897202480,50571,236785,263787
1629897202490,50563,236709,263763
1629897202500,50526,236605,263720
1629897202510,50486,236532,263732
1629897202520,50452,236505,263728
1629897202530,50406,236478,263703
1629897202540,50381,236440,263741
1629897202550,50357,236421,263709
1629897202560,50342,236408,263716
1629897202570,50313,236446,263708
1629897202580,50291,236358,263732
1629897202590,50267,236369,263717
1629897202600,50247,236358,263687
1629897202610,50230,236358,263696
1629897202620,50215,236359,263681
1629897202630,50197,236306,263676
1629897202640,50177,236316,263687
1629897202650,50139,236279,263696
1629897202660,50142,236263,263681
1629897202670,50101,236244,263639
1629897202680,50100,236226,263682
1629897202690,50083,236233,263654
1629897202700,50066,236223,263666
1629897202710,50054,236229,263687
1629897202720,50054,236201,263674
1629897202730,50037,236206,263686
1629897202740,50048,236234,263671
1629897202750,50043,236206,263684
1629897202760,50045,236257,263697
1629897202770,50043,236221,263661
1629897202780,50045,236231,263686
1629897202790,50037,236200,263685
1629897202800,50039,236249,263653
1629897202810,50036,236230,263654
1629897202820,50044,236233,263687
1629897202830,50023,236226,263730
1629897202840,50034,236276,263676
1629897202850,50033,236277,263713
1629897202860,50036,236255,263709
1629897202870,50038,236284,263739
1629897202880,50041,236248,263712
1629897202890,50049,236279,263757
1629897202900,50053,236270,263737
1629897202910,50064,236312,263708
1629897202920,50077,236305,263754
1629897202930,50075,236322,263771
1629897202940,50094,236321,263792
1629897202950,50108,236363,263788
1629897202960,50106,236336,263794
1629897202970,50118,236373,263820
1629897202980,50133,236394,263848
1629897202990,50140,236416,263823
1629897203000,50155,236419,263816
1629897203010,50150,236433,263848
1629897203020,50164,236464,263839
1629897203030,50171,236460,263855
1629897203040,50183,236474,263860
1629897203050,50189,236474,263856
1629897203060,50209,236490,263898
1629897203070,50214,236488,263902
1629897203080,50224,236532,263897
1629897203090,50239,236556,263894
1629897203100,50246,236546,263912
1629897203110,50261,236564,263923
1629897203120,50269,236583,263924
1629897203130,50278,236600,263914
1629897203140,50299,236614,263926
1629897203150,50308,236639,263955
1629897203160,50317,236652,263973
1629897203170,50317,236621,263953
1629897203180,50328,236628,263980
1629897203190,50347,236714,263974
1629897203200,50360,236678,263969
1629897203210,50363,236700,264003
1629897203220,50383,236711,264002
1629897203230,50388,236729,263984
1629897203240,50403,236737,264017
1629897203250,50418,236764,264034
1629897203260,50424,236799,264015
1629897203270,50446,236830,264025
1629897203280,50456,236797,264023
1629897203290,50474,236815,264033
1629897203300,50473,236839,263985
1629897203310,50499,236857,264033
1629897203320,50509,236865,264053
1629897203330,50527,236858,264030
1629897203340,50516,236813,263987
1629897203350,50506,236751,263955
1629897203360,50494,236710,263944
1629897203370,50472,236596,263890
1629897203380,50446,236515,263891
1629897203390,50412,236442,263877
1629897203400,50382,236448,263873
1629897203410,50368,236421,263886
1629897203420,50350,236384,263897
1629897203430,50320,236370,263887
1629897203440,50313,236402,263880
1629897203450,50306,236395,263842
1629897203460,50294,236409,263878
1629897203470,50292,236336,263857
1629897203480,50271,236338,263891
1629897203490,50252,236356,263846
1629897203500,50243,236299,263850
1629897203510,50234,236323,263837
1629897203520,50219,236301,263870
1629897203530,50214,236299,263851
1629897203540,50201,236268,263864
1629897203550,50190,236252,263868
1629897203560,50189,236273,263849
1629897203570,50172,236248,263881
1629897203580,50174,236291,263855
1629897203590,50170,236287,263888
1629897203600,50176,236282,263866
1629897203610,50183,236317,263880
1629897203620,50182,236321,263892
1629897203630,50178,236303,263887
1629897203640,50194,236322,263878
1629897203650,50180,236304,263860
1629897203660,50184,236286,263869
1629897203670,50187,236310,263872
1629897203680,50185,236329,263878
1629897203690,50187,236309,263872
1629897203700,50184,236317,263900
1629897203710,50192,236334,263884
1629897203720,50198,236322,263897
1629897203730,50192,236363,263893
1629897203740,50195,236351,263908
1629897203750,50205,236335,263891
1629897203760,50212,236360,263881
1629897203770,50225,236360,263930
1629897203780,50222,236378,263913
1629897203790,50224,236371,263930
1629897203800,50239,236419,263925
1629897203810,50243,236398,263953
1629897203820,50251,236413,263912
1629897203830,50264,236466,263940
1629897203840,50269,236447,263937
1629897203850,50283,236464,263967
1629897203860,50292,236478,263957
1629897203870,50298,236518,263977
1629897203880,50310,236495,263974
1629897203890,50326,236523,263974
1629897203900,50335,236524,263991
1629897203910,50340,236533,263992
1629897203920,50356,236563,263987
1629897203930,50362,236561,263986
1629897203940,50375,236573,263999
1629897203950,50385,236580,263990
1629897203960,50384,236589,263981
1629897203970,50405,236578,264019
1629897203980,50414,236629,264063
1629897203990,50419,236628,264041
1629897204000,50420,236638,264031
1629897204010,50437,236683,264055
1629897204020,50448,236695,264060
1629897204030,50460,236702,264053
1629897204040,50466,236714,264086
1629897204050,50486,236717,264091
1629897204060,50497,236740,264076
1629897204070,50504,236760,264092
1629897204080,50523,236749,264089
1629897204090,50524,236762,264128
1629897204100,50541,236749,264103
1629897204110,50562,236801,264103
1629897204120,50561,236841,264083
1629897204130,50579,236804,264103
1629897204140,50583,236813,264046
1629897204150,50576,236738,264047
1629897204160,50563,236667,264015
1629897204170,50546,236592,263995
1629897204180,50520,236512,263984
1629897204190,50500,236504,263967
1629897204200,50472,236440,263968
1629897204210,50457,236454,263930
1629897204220,50436,236443,263985
1629897204230,50432,236439,263967
1629897204240,50427,236423,264003
1629897204250,50411,236423,263958
1629897204260,50407,236382,263989
1629897204270,50396,236371,263973
1629897204280,50391,236410,264021
1629897204290,50371,236372,263975
1629897204300,50369,236373,263953
1629897204310,50368,236352,263959
1629897204320,50354,236347,263979
1629897204330,50355,236329,263985
1629897204340,50337,236323,263946
1629897204350,50331,236299,263922
1629897204360,50323,236319,263991
1629897204370,50318,236325,263944
1629897204380,50317,236315,263961
1629897204390,50316,236314,263982
1629897204400,50322,236323,263965
1629897204410,50320,236407,263970
1629897204420,50338,236354,263965
1629897204430,50331,236344,263984
1629897204440,50337,236335,263979
1629897204450,50335,236365,263917
1629897204460,50334,236354,263972
1629897204470,50331,236325,263967
1629897204480,50330,236343,263961
1629897204490,50331,236384,263963
1629897204500,50336,236363,263951
1629897204510,50345,236353,263984
1629897204520,50350,236337,263974
1629897204530,50348,236383,263959
1629897204540,50350,236371,263958
1629897204550,50355,236373,263940
1629897204560,50366,236371,263971
1629897204570,50371,236394,263970
1629897204580,50374,236426,263982
1629897204590,50386,236401,263988
1629897204600,50400,236442,263969
1629897204610,50396,236429,264000
1629897204620,50410,236453,263982
1629897204630,50416,236487,263975
1629897204640,50420,236469,263993
1629897204650,50437,236463,264024
1629897204660,50446,236522,263990
1629897204670,50455,236558,264021
1629897204680,50466,236510,264016
1629897204690,50481,236562,264034
1629897204700,50488,236574,264051
1629897204710,50502,236583,264031
1629897204720,50511,236602,264049
1629897204730,50530,236605,264045
1629897204740,50527,236603,264055
1629897204750,50545,236639,264059
1629897204760,50550,236631,264059
1629897204770,50558,236616,264078
1629897204780,50568,236691,264050
1629897204790,50572,236693,264050
1629897204800,50590,236700,264078
1629897204810,50593,236674,264096
1629897204820,50612,236713,264065
1629897204830,50613,236723,264085
1629897204840,50625,236765,264097
1629897204850,50640,236728,264120
1629897204860,50647,236782,264102
1629897204870,50673,236749,264075
1629897204880,50678,236822,264103
1629897204890,50683,236804,264066
1629897204900,50696,236821,264136
1629897204910,50706,236807,264081
1629897204920,50723,236743,264040
1629897204930,50697,236675,264010
1629897204940,50692,236640,263986
1629897204950,50690,236587,263970
1629897204960,50653,236521,263922
1629897204970,50645,236466,263943
1629897204980,50616,236452,263971
1629897204990,50602,236415,263941
1629897205000,50585,236419,263954
1629897205010,50582,236428,263979
1629897205020,50570,236395,263935
1629897205030,50562,236405,263963
1629897205040,50556,236392,263941
1629897205050,50545,236400,263968
1629897205060,50531,236348,263925
1629897205070,50528,236346,263931
1629897205080,50510,236334,263943
1629897205090,50518,236352,263982
1629897205100,50504,236327,263966
1629897205110,50481,236309,263922
1629897205120,50473,236315,263906
1629897205130,50469,236290,263892
1629897205140,50460,236303,263906
1629897205150,50456,236286,263942
1629897205160,50451,236312,263960
1629897205170,50448,236306,263944
1629897205180,50446,236313,263957
1629897205190,50469,236328,263949
1629897205200,50458,236336,263966
1629897205210,50464,236356,263955
1629897205220,50458,236325,263948
1629897205230,50473,236354,263950
1629897205240,50462,236340,263947
1629897205250,50464,236339,263935
1629897205260,50472,236338,263911
1629897205270,50475,236348,263963
1629897205280,50479,236328,263958
1629897205290,50478,236374,263942
1629897205300,50481,236333,263943
1629897205310,50485,236326,263952
1629897205320,50489,236354,263922
1629897205330,50498,236359,263936
1629897205340,50504,236346,263937
1629897205350,50515,236385,263917
1629897205360,50515,236363,263938
1629897205370,50522,236399,263924
1629897205380,50539,236429,263969
1629897205390,50552,236411,263949
1629897205400,50550,236467,263952
1629897205410,50570,236433,263951
1629897205420,50579,236458,263979
1629897205430,50585,236472,263985
1629897205440,50592,236475,263949
1629897205450,50596,236498,263970
1629897205460,50608,236532,263977
1629897205470,50621,236534,263994
1629897205480,50615,236540,264000
1629897205490,50630,236539,264024
1629897205500,50641,236598,263988
1629897205510,50652,236582,263979
1629897205520,50668,236629,264014
1629897205530,50690,236588,263989
1629897205540,50680,236613,264011
1629897205550,50683,236614,264005
1629897205560,50709,236625,264000
1629897205570,50708,236683,264022
1629897205580,50709,236644,264020
1629897205590,50722,236660,264037
1629897205600,50729,236667,264026
1629897205610,50749,236657,264025
1629897205620,50758,236720,264038
1629897205630,50778,236705,264020
1629897205640,50788,236750,264027
1629897205650,50793,236740,264048
1629897205660,50813,236745,264052
1629897205670,50824,236796,264082
1629897205680,50825,236771,264039
1629897205690,50859,236820,264102
1629897205700,50860,236831,264079
1629897205710,50876,236815,264081
1629897205720,50887,236854,264103
1629897205730,50896,236872,264055
1629897205740,50894,236870,264060
1629897205750,50911,236880,264025
1629897205760,50916,236800,263987
1629897205770,50905,236793,263957
1629897205780,50905,236675,263954
1629897205790,50888,236636,263918
1629897205800,50869,236572,263928
1629897205810,50850,236533,263904
1629897205820,50843,236478,263895
1629897205830,50827,236470,263885
1629897205840,50823,236444,263925
1629897205850,50822,236479,263936
1629897205860,50799,236453,263918
1629897205870,50787,236453,263928
1629897205880,50788,236462,263882
1629897205890,50776,236421,263894
1629897205900,50773,236416,263900
1629897205910,50745,236396,263903
1629897205920,50749,236390,263890
1629897205930,50737,236387,263889
1629897205940,50718,236331,263868
1629897205950,50715,236340,263875
1629897205960,50703,236341,263881
1629897205970,50696,236326,263881
1629897205980,50679,236361,263897
1629897205990,50673,236366,263867
1629897206000,50662,236306,263855
1629897206010,50656,236299,263886
1629897206020,50667,236327,263869
1629897206030,50661,236319,263862
1629897206040,50652,236360,263872
1629897206050,50655,236306,263856
1629897206060,50673,236366,263881
1629897206070,50661,236320,263849
1629897206080,50661,236369,263867
1629897206090,50661,236319,263848
1629897206100,50663,236381,263801
1629897206110,50662,236310,263836
1629897206120,50655,236329,263828
1629897206130,50662,236348,263828
1629897206140,50674,236336,263834
1629897206150,50665,236377,263818
1629897206160,50676,236352,263820
1629897206170,50684,236346,263839
1629897206180,50683,236382,263861
1629897206190,50677,236387,263842
1629897206200,50694,236389,263819
1629897206210,50699,236379,263827
1629897206220,50698,236375,263813
1629897206230,50724,236439,263848
1629897206240,50711,236421,263844
1629897206250,50721,236427,263817
1629897206260,50731,236446,263842
1629897206270,50741,236467,263835
1629897206280,50741,236481,263836
1629897206290,50749,236468,263838
1629897206300,50760,236501,263868
1629897206310,50764,236520,263883
1629897206320,50768,236516,263908
1629897206330,50787,236482,263846
1629897206340,50794,236541,263843
1629897206350,50802,236572,263870
1629897206360,50810,236556,263859
1629897206370,50831,236560,263864
1629897206380,50829,236602,263880
1629897206390,50839,236577,263878
1629897206400,50848,236623,263888
1629897206410,50848,236643,263865
1629897206420,50861,236643,263911
1629897206430,50875,236648,263901
1629897206440,50883,236649,263868
1629897206450,50898,236670,263881
1629897206460,50909,236666,263880
1629897206470,50912,236699,263876
1629897206480,50921,236714,263923
1629897206490,50939,236705,263876
1629897206500,50942,236725,263893
1629897206510,50955,236723,263910
1629897206520,50964,236759,263875
1629897206530,50975,236790,263922
1629897206540,50980,236766,263903
1629897206550,50997,236783,263901
1629897206560,51009,236769,263885
1629897206570,51015,236778,263949
1629897206580,51027,236828,263908
1629897206590,51045,236819,263922
1629897206600,51052,236870,263935
1629897206610,51064,236864,263936
1629897206620,51074,236857,263875
1629897206630,51088,236866,263889
1629897206640,51081,236837,263877
1629897206650,51075,236776,263822
1629897206660,51073,236685,263831
1629897206670,51050,236652,263799
1629897206680,51042,236550,263764
1629897206690,51025,236495,263781
1629897206700,51002,236509,263787
1629897206710,50994,236484,263797
1629897206720,50984,236519,263779
1629897206730,50963,236470,263821
1629897206740,50952,236467,263831
1629897206750,50946,236464,263784
1629897206760,50949,236432,263765
1629897206770,50924,236463,263769
1629897206780,50910,236413,263744
1629897206790,50902,236387,263751
1629897206800,50885,236372,263765
1629897206810,50880,236373,263758
1629897206820,50863,236378,263757
1629897206830,50857,236320,263727
1629897206840,50845,236315,263725
1629897206850,50832,236313,263744
1629897206860,50823,236303,263722
1629897206870,50815,236329,263733
1629897206880,50800,236292,263682
1629897206890,50803,236287,263743
1629897206900,50799,236306,263733
1629897206910,50793,236350,263733
1629897206920,50788,236347,263746
1629897206930,50785,236308,263701
1629897206940,50786,236356,263731
1629897206950,50789,236315,263703
1629897206960,50787,236311,263724
1629897206970,50776,236308,263705
1629897206980,50772,236295,263715
1629897206990,50781,236339,263690
1629897207000,50781,236312,263699
1629897207010,50784,236349,263705
1629897207020,50781,236378,263705
1629897207030,50777,236296,263695
1629897207040,50776,236339,263697
1629897207050,50782,236383,263730
1629897207060,50790,236373,263712
1629897207070,50789,236358,263654
1629897207080,50792,236377,263715
1629897207090,50796,236368,263684
1629897207100,50795,236409,263694
1629897207110,50804,236421,263689
1629897207120,50809,236442,263714
1629897207130,50817,236448,263713
1629897207140,50823,236431,263697
1629897207150,50823,236472,263691
1629897207160,50828,236473,263716
1629897207170,50833,236480,263732
1629897207180,50837,236458,263706
1629897207190,50854,236494,263711
1629897207200,50856,236481,263737
1629897207210,50865,236524,263725
1629897207220,50870,236538,263728
1629897207230,50880,236536,263723
1629897207240,50883,236541,263751
1629897207250,50892,236568,263751
1629897207260,50902,236572,263721
1629897207270,50910,236589,263764
1629897207280,50914,236583,263733
1629897207290,50930,236615,263759
1629897207300,50937,236600,263772
1629897207310,50936,236622,263771
1629897207320,50964,236610,263761
1629897207330,50964,236647,263752
1629897207340,50977,236665,263758
1629897207350,50971,236713,263778
1629897207360,50977,236723,263815
1629897207370,50986,236715,263830
1629897207380,51003,236730,263811
1629897207390,51019,236779,263822
1629897207400,51024,236789,263839
1629897207410,51031,236785,263829
1629897207420,51036,236795,263862
1629897207430,51048,236800,263856
1629897207440,51048,236823,263858
1629897207450,51065,236834,263844
1629897207460,51079,236834,263845
1629897207470,51089,236882,263839
1629897207480,51105,236865,263875
1629897207490,51100,236850,263840
1629897207500,51121,236890,263853
1629897207510,51125,236874,263833
1629897207520,51120,236874,263818
1629897207530,51133,236811,263796
1629897207540,51134,236778,263766
1629897207550,51108,236718,263701
1629897207560,51107,236625,263691
1629897207570,51071,236558,263708
1629897207580,51063,236516,263680
1629897207590,51039,236512,263672
1629897207600,51017,236457,263713
1629897207610,50995,236471,263716
1629897207620,50992,236500,263654
1629897207630,50976,236445,263696
1629897207640,50963,236473,263676
1629897207650,50951,236418,263651
1629897207660,50947,236400,263642
1629897207670,50923,236389,263661
1629897207680,50908,236431,263626
1629897207690,50904,236369,263644
1629897207700,50885,236353,263654
1629897207710,50869,236340,263659
1629897207720,50857,236386,263658
1629897207730,50844,236325,263661
1629897207740,50828,236346,263621
1629897207750,50813,236290,263635
1629897207760,50804,236325,263602
1629897207770,50796,236345,263628
1629897207780,50783,236323,263665
1629897207790,50789,236328,263641
1629897207800,50774,236362,263618
1629897207810,50784,236338,263650
1629897207820,50781,236312,263623
1629897207830,50781,236348,263617
1629897207840,50774,236339,263615
1629897207850,50780,236353,263613
1629897207860,50777,236333,263644
1629897207870,50768,236316,263618
1629897207880,50768,236366,263600
1629897207890,50770,236376,263639
1629897207900,50775,236359,263616
1629897207910,50766,236368,263598
1629897207920,50765,236360,263619
1629897207930,50770,236355,263628
1629897207940,50768,236384,263629
1629897207950,50775,236376,263650
1629897207960,50773,236377,263633
1629897207970,50783,236413,263611
1629897207980,50785,236433,263656
1629897207990,50788,236444,263654
1629897208000,50786,236428,263645
1629897208010,50805,236474,263660
1629897208020,50807,236485,263678
1629897208030,50812,236479,263697
1629897208040,50804,236488,263691
1629897208050,50819,236510,263679
1629897208060,50828,236512,263675
1629897208070,50829,236562,263677
1629897208080,50837,236525,263686
1629897208090,50837,236553,263695
1629897208100,50837,236560,263691
1629897208110,50863,236591,263716
1629897208120,50868,236602,263715
1629897208130,50873,236602,263711
1629897208140,50882,236633,263686
1629897208150,50882,236615,263740
1629897208160,50886,236643,263728
1629897208170,50905,236648,263709
1629897208180,50915,236617,263695
1629897208190,50913,236679,263735
1629897208200,50920,236671,263716
1629897208210,50931,236671,263725
1629897208220,50944,236689,263739
1629897208230,50964,236677,263746
1629897208240,50966,236722,263736
1629897208250,50960,236719,263727
1629897208260,50966,236746,263750
1629897208270,50987,236745,263758
1629897208280,51005,236717,263759
1629897208290,51003,236768,263756
1629897208300,51020,236814,263802
1629897208310,51030,236806,263777
1629897208320,51038,236830,263751
1629897208330,51054,236851,263781
1629897208340,51046,236863,263796
1629897208350,51073,236874,263801
1629897208360,51087,236914,263807
1629897208370,51094,236933,263824
1629897208380,51112,236907,263792
1629897208390,51111,236884,263771
1629897208400,51128,236915,263803
1629897208410,51132,236913,263789
1629897208420,51136,236909,263791
1629897208430,51139,236881,263746
1629897208440,51131,236807,263741
1629897208450,51118,236747,263698
1629897208460,51098,236656,263697
1629897208470,51076,236616,263673
1629897208480,51058,236560,263628
1629897208490,51039,236549,263643
1629897208500,51020,236540,263677
1629897208510,51007,236499,263654
1629897208520,50996,236500,263664
1629897208530,50977,236490,263650
1629897208540,50958,236493,263651
1629897208550,50956,236476,263658
1629897208560,50944,236470,263675
1629897208570,50946,236458,263642
1629897208580,50920,236464,263663
1629897208590,50917,236477,263669
1629897208600,50905,236431,263664
1629897208610,50887,236444,263642
1629897208620,50878,236430,263649
1629897208630,50872,236398,263632
1629897208640,50858,236428,263647
1629897208650,50850,236446,263638
1629897208660,50857,236436,263668
1629897208670,50832,236441,263663
1629897208680,50840,236425,263640
1629897208690,50832,236464,263672
1629897208700,50836,236474,263686
1629897208710,50843,236449,263665
1629897208720,50842,236490,263660
1629897208730,50831,236473,263665
1629897208740,50831,236460,263668
1629897208750,50836,236444,263677
1629897208760,50841,236454,263657
1629897208770,50834,236462,263684
1629897208780,50829,236480,263676
1629897208790,50831,236487,263684
1629897208800,50826,236498,263683
1629897208810,50818,236523,263663
1629897208820,50831,236482,263664
1629897208830,50830,236488,263650
1629897208840,50834,236525,263672
1629897208850,50837,236526,263681
1629897208860,50845,236518,263685
1629897208870,50846,236520,263679
1629897208880,50854,236552,263663
1629897208890,50864,236545,263700
1629897208900,50858,236565,263705
1629897208910,50869,236591,263703
1629897208920,50884,236597,263698
1629897208930,50891,236613,263703
1629897208940,50892,236614,263730
1629897208950,50905,236619,263748
1629897208960,50911,236603,263757
1629897208970,50912,236663,263754
1629897208980,50922,236684,263792
1629897208990,50928,236697,263752
1629897209000,50929,236701,263718
1629897209010,50929,236696,263742
1629897209020,50949,236734,263804
1629897209030,50955,236723,263743
1629897209040,50956,236761,263740
1629897209050,50971,236753,263788
1629897209060,50979,236799,263792
1629897209070,50990,236787,263748
1629897209080,50999,236794,263779
1629897209090,51009,236801,263778
1629897209100,51021,236816,263802
1629897209110,51027,236793,263809
1629897209120,51037,236843,263812
1629897209130,51039,236850,263825
1629897209140,51048,236874,263844
1629897209150,51057,236867,263844
1629897209160,51070,236907,263849
1629897209170,51074,236904,263849
1629897209180,51090,236924,263869
1629897209190,51085,236914,263856
1629897209200,51103,236944,263846
1629897209210,51107,236987,263846
1629897209220,51121,236991,263843
1629897209230,51128,236953,263817
1629897209240,51141,236979,263854
1629897209250,51146,237002,263837
1629897209260,51168,236999,263816
1629897209270,51166,236974,263779
1629897209280,51151,236906,263808
1629897209290,51137,236848,263758
1629897209300,51127,236768,263700
1629897209310,51104,236701,263739
1629897209320,51090,236672,263717
1629897209330,51069,236619,263702
1629897209340,51050,236603,263701
1629897209350,51017,236620,263707
1629897209360,51008,236580,263692
1629897209370,50996,236566,263726
1629897209380,50979,236613,263693
1629897209390,50967,236580,263678
1629897209400,50970,236574,263686
1629897209410,50950,236564,263665
1629897209420,50953,236566,263687
1629897209430,50937,236578,263687
1629897209440,50925,236546,263679
1629897209450,50921,236555,263721
1629897209460,50905,236525,263711
1629897209470,50912,236506,263708
1629897209480,50898,236519,263705
1629897209490,50890,236520,263690
1629897209500,50881,236525,263711
1629897209510,50870,236534,263685
1629897209520,50873,236536,263700
1629897209530,50875,236548,263695
1629897209540,50880,236575,263682
1629897209550,50874,236513,263712
1629897209560,50884,236543,263704
1629897209570,50878,236536,263684
1629897209580,50871,236549,263697
1629897209590,50874,236532,263680
1629897209600,50877,236519,263721
1629897209610,50891,236532,263689
1629897209620,50880,236543,263679
1629897209630,50871,236552,263697
1629897209640,50881,236570,263701
1629897209650,50885,236622,263706
1629897209660,50889,236567,263731
1629897209670,50882,236595,263714
1629897209680,50888,236570,263712
1629897209690,50895,236607,263712
1629897209700,50892,236599,263749
1629897209710,50899,236659,263713
1629897209720,50908,236663,263722
1629897209730,50908,236657,263715
1629897209740,50929,236694,263769
1629897209750,50931,236734,263765
1629897209760,50942,236698,263763
1629897209770,50940,236651,263767
1629897209780,50952,236750,263786
1629897209790,50951,236743,263757
1629897209800,50969,236787,263775
1629897209810,50972,236795,263790
1629897209820,50975,236773,263800
1629897209830,50995,236784,263810
1629897209840,50999,236800,263782
1629897209850,51003,236796,263822
1629897209860,51012,236804,263795
1629897209870,51025,236838,263814
1629897209880,51031,236864,263807
1629897209890,51039,236849,263808
1629897209900,51043,236858,263828
1629897209910,51052,236917,263824
1629897209920,51058,236891,263832
1629897209930,51079,236912,263826
1629897209940,51083,236898,263845
1629897209950,51095,236958,263851
1629897209960,51093,236958,263831
1629897209970,51103,236953,263865
1629897209980,51113,236956,263871
1629897209990,51130,236986,263855
1629897210000,51125,237002,263824
1629897210010,51139,237029,263886
1629897210020,51153,237020,263856
1629897210030,51158,237043,263893
1629897210040,51164,237039,263851
1629897210050,51170,237025,263854
1629897210060,51181,237035,263813
1629897210070,51179,236968,263778
1629897210080,51157,236906,263765
1629897210090,51147,236841,263736
1629897210100,51129,236757,263689
1629897210110,51101,236700,263692
1629897210120,51068,236640,263694
1629897210130,51045,236645,263686
1629897210140,51035,236626,263687
1629897210150,50998,236628,263676
1629897210160,50992,236590,263669
1629897210170,50978,236587,263649
1629897210180,50972,236580,263653
1629897210190,50952,236539,263678
1629897210200,50943,236519,263668
1629897210210,50928,236569,263644
1629897210220,50918,236516,263708
1629897210230,50897,236514,263660
1629897210240,50898,236516,263639
1629897210250,50877,236492,263664
1629897210260,50864,236478,263624
1629897210270,50852,236449,263622
1629897210280,50833,236479,263625
1629897210290,50827,236472,263637
1629897210300,50818,236479,263653
1629897210310,50824,236482,263634
1629897210320,50812,236454,263627
1629897210330,50813,236481,263674
1629897210340,50813,236457,263654
1629897210350,50813,236497,263655
1629897210360,50806,236491,263658
1629897210370,50810,236502,263627
1629897210380,50805,236506,263650
1629897210390,50795,236478,263629
1629897210400,50813,236497,263640
1629897210410,50810,236489,263628
1629897210420,50798,236493,263663
1629897210430,50810,236507,263647
1629897210440,50808,236527,263631
1629897210450,50808,236477,263655
1629897210460,50820,236493,263662
1629897210470,50814,236522,263629
1629897210480,50811,236532,263632
1629897210490,50824,236495,263683
1629897210500,50835,236541,263659
1629897210510,50831,236558,263649
1629897210520,50841,236562,263666
1629897210530,50850,236594,263670
1629897210540,50851,236624,263696
1629897210550,50868,236597,263690
1629897210560,50866,236620,263716
1629897210570,50874,236671,263705
1629897210580,50880,236664,263703
1629897210590,50879,236651,263671
1629897210600,50900,236711,263724
1629897210610,50908,236642,263705
1629897210620,50922,236693,263722
1629897210630,50926,236716,263700
1629897210640,50925,236706,263698
1629897210650,50940,236734,263718
1629897210660,50956,236732,263745
1629897210670,50955,236782,263752
1629897210680,50965,236780,263712
1629897210690,50977,236786,263708
1629897210700,50985,236755,263745
1629897210710,50994,236778,263750
1629897210720,51002,236809,263734
1629897210730,51009,236830,263745
1629897210740,51022,236855,263744
1629897210750,51033,236864,263757
1629897210760,51039,236879,263746
1629897210770,51054,236845,263742
1629897210780,51055,236917,263774
1629897210790,51067,236895,263779
1629897210800,51064,236907,263771
1629897210810,51080,236934,263754
1629897210820,51097,236946,263805
1629897210830,51106,236922,263776
1629897210840,51113,236936,263793
1629897210850,51124,236961,263801
1629897210860,51130,236974,263803
1629897210870,51138,237009,263766
1629897210880,51152,236977,263765
1629897210890,51153,236944,263752
1629897210900,51131,236866,263698
1629897210910,51128,236775,263659
1629897210920,51099,236704,263637
1629897210930,51083,236613,263617
1629897210940,51055,236603,263583
1629897210950,51020,236581,263606
1629897210960,50988,236494,263592
1629897210970,50976,236514,263592
1629897210980,50941,236508,263578
1629897210990,50932,236492,263581
1629897211000,50914,236458,263571
1629897211010,50897,236440,263564
1629897211020,50874,236422,263550
1629897211030,50864,236415,263528
1629897211040,50847,236439,263554
1629897211050,50829,236343,263529
1629897211060,50813,236357,263543
1629897211070,50792,236363,263532
1629897211080,50785,236311,263481
1629897211090,50765,236332,263510
1629897211100,50733,236322,263495
1629897211110,50741,236284,263498
1629897211120,50714,236302,263529
1629897211130,50694,236267,263496
1629897211140,50686,236257,263492
1629897211150,50678,236277,263486
1629897211160,50670,236254,263496
1629897211170,50667,236268,263528
1629897211180,50670,236254,263495
1629897211190,50667,236280,263495
1629897211200,50672,236282,263491
1629897211210,50672,236256,263488
1629897211220,50659,236272,263501
1629897211230,50655,236247,263510
1629897211240,50655,236242,263476
1629897211250,50659,236287,263477
1629897211260,50657,236278,263503
1629897211270,50666,236260,263478
1629897211280,50668,236282,263498
1629897211290,50654,236289,263492
1629897211300,50655,236269,263489
1629897211310,50655,236292,263486
1629897211320,50659,236301,263461
1629897211330,50664,236315,263471
1629897211340,50671,236306,263492
1629897211350,50677,236309,263489
1629897211360,50688,236313,263507
1629897211370,50696,236317,263515
1629897211380,50701,236354,263480
1629897211390,50707,236379,263514
1629897211400,50710,236360,263495
1629897211410,50718,236386,263495
1629897211420,50716,236376,263518
1629897211430,50726,236383,263502
1629897211440,50737,236430,263514
1629897211450,50741,236363,263515
1629897211460,50750,236409,263536
1629897211470,50755,236443,263491
1629897211480,50760,236464,263525
1629897211490,50767,236450,263535
1629897211500,50776,236465,263532
1629897211510,50780,236451,263520
1629897211520,50796,236504,263527
1629897211530,50809,236474,263507
1629897211540,50811,236509,263541
1629897211550,50826,236520,263499
1629897211560,50827,236552,263543
1629897211570,50836,236523,263543
1629897211580,50835,236572,263529
1629897211590,50860,236524,263532
1629897211600,50866,236576,263541
1629897211610,50877,236592,263555
1629897211620,50883,236583,263552
1629897211630,50888,236584,263519
1629897211640,50893,236608,263566
1629897211650,50908,236593,263545
1629897211660,50920,236620,263575
1629897211670,50923,236658,263538
1629897211680,50943,236661,263539
1629897211690,50954,236675,263559
1629897211700,50956,236703,263591
1629897211710,50970,236700,263586
1629897211720,50985,236733,263572
1629897211730,50993,236696,263573
1629897211740,50986,236741,263582
1629897211750,50999,236713,263507
1629897211760,50999,236670,263499
1629897211770,50993,236580,263428
1629897211780,50964,236471,263385
1629897211790,50931,236408,263396
1629897211800,50905,236352,263355
1629897211810,50887,236333,263342
1629897211820,50850,236307,263374
1629897211830,50831,236258,263340
1629897211840,50818,236222,263364
1629897211850,50794,236242,263364
1629897211860,50782,236233,263366
1629897211870,50757,236192,263342
1629897211880,50743,236179,263336
1629897211890,50726,236158,263350
1629897211900,50707,236122,263303
1629897211910,50684,236106,263331
1629897211920,50674,236121,263308
1629897211930,50656,236090,263346
1629897211940,50640,236080,263268
1629897211950,50625,236033,263309
1629897211960,50602,236053,263309
1629897211970,50590,236022,263288
1629897211980,50561,236040,263278
1629897211990,50555,236009,263283
1629897212000,50538,236020,263298
1629897212010,50536,235988,263303
1629897212020,50529,236010,263270
1629897212030,50530,236014,263302
1629897212040,50516,236014,263261
1629897212050,50515,236027,263294
1629897212060,50522,236039,263283
1629897212070,50515,236020,263258
1629897212080,50519,236050,263267
1629897212090,50512,235983,263246
1629897212100,50508,235959,263249
1629897212110,50502,236027,263283
1629897212120,50496,236020,263250
1629897212130,50502,236014,263266
1629897212140,50495,236010,263259
1629897212150,50500,236045,263262
1629897212160,50504,235999,263282
1629897212170,50506,236036,263249
1629897212180,50503,235994,263262
1629897212190,50513,236033,263241
1629897212200,50511,236021,263247
1629897212210,50517,236042,263245
1629897212220,50517,236060,263253
1629897212230,50524,236077,263255
1629897212240,50531,236067,263259
1629897212250,50543,236088,263256
1629897212260,50545,236092,263241
1629897212270,50542,236116,263264
1629897212280,50554,236137,263246
1629897212290,50555,236131,263284
1629897212300,50562,236165,263273
1629897212310,50565,236156,263273
1629897212320,50571,236145,263281
1629897212330,50589,236161,263270
1629897212340,50593,236185,263268
1629897212350,50603,236199,263270
1629897212360,50615,236205,263254
1629897212370,50610,236236,263309
1629897212380,50634,236224,263298
1629897212390,50622,236239,263327
1629897212400,50647,236276,263268
1629897212410,50659,236222,263293
1629897212420,50657,236252,263289
1629897212430,50662,236295,263275
1629897212440,50664,236282,263306
1629897212450,50680,236334,263294
1629897212460,50689,236292,263312
1629897212470,50695,236310,263277
1629897212480,50707,236314,263306
1629897212490,50725,236341,263337
1629897212500,50725,236385,263321
1629897212510,50729,236418,263345
1629897212520,50747,236375,263333
1629897212530,50764,236410,263343
1629897212540,50771,236409,263340
1629897212550,50769,236414,263343
1629897212560,50779,236452,263349
1629897212570,50803,236475,263356
1629897212580,50812,236477,263339
1629897212590,50821,236496,263319
1629897212600,50825,236498,263328
1629897212610,50827,236478,263338
1629897212620,50833,236464,263305
1629897212630,50834,236375,263264
1629897212640,50820,236326,263249
1629897212650,50801,236260,263189
1629897212660,50771,236161,263139
1629897212670,50747,236129,263154
1629897212680,50727,236098,263157
1629897212690,50701,236046,263153
1629897212700,50684,236022,263125
1629897212710,50648,235997,263142
1629897212720,50645,235992,263141
1629897212730,50614,236021,263168
1629897212740,50608,235967,263127
1629897212750,50590,235992,263100
1629897212760,50564,235917,263071
1629897212770,50546,235891,263101
1629897212780,50532,235898,263090
1629897212790,50520,235918,263068
1629897212800,50508,235873,263112
1629897212810,50503,235873,263069
1629897212820,50472,235880,263095
1629897212830,50469,235871,263091
1629897212840,50450,235833,263086
1629897212850,50435,235816,263090
1629897212860,50419,235819,263091
1629897212870,50405,235835,263056
1629897212880,50406,235821,263050
1629897212890,50405,235867,263089
1629897212900,50395,235842,263108
1629897212910,50397,235834,263089
1629897212920,50390,235861,263076
1629897212930,50388,235858,263065
1629897212940,50390,235854,263028
1629897212950,50390,235829,263044
1629897212960,50396,235859,263055
1629897212970,50386,235868,263054
1629897212980,50391,235852,263058
1629897212990,50390,235873,263044
1629897213000,50387,235886,263042
1629897213010,50390,235879,263061
1629897213020,50403,235871,263058
1629897213030,50387,235908,263046
1629897213040,50395,235915,263041
1629897213050,50389,235887,263070
1629897213060,50394,235917,263037
1629897213070,50402,235925,263036
1629897213080,50402,235934,263072
1629897213090,50418,235921,263066
1629897213100,50415,235975,263097
1629897213110,50419,235950,263106
1629897213120,50431,235995,263113
1629897213130,50432,235973,263082
1629897213140,50446,236037,263084
1629897213150,50454,235978,263121
1629897213160,50458,236030,263102
1629897213170,50464,236085,263109
1629897213180,50477,236059,263127
1629897213190,50484,236064,263128
1629897213200,50488,236065,263117
1629897213210,50493,236125,263128
1629897213220,50516,236159,263119
1629897213230,50515,236116,263145
1629897213240,50515,236107,263145
1629897213250,50535,236123,263139
1629897213260,50541,236143,263111
1629897213270,50551,236174,263146
1629897213280,50557,236220,263116
1629897213290,50572,236167,263139
1629897213300,50580,236199,263161
1629897213310,50596,236199,263181
1629897213320,50596,236219,263135
1629897213330,50613,236240,263160
1629897213340,50619,236225,263176
1629897213350,50626,236233,263174
1629897213360,50640,236236,263201
1629897213370,50656,236297,263177
1629897213380,50661,236327,263161
1629897213390,50666,236323,263168
1629897213400,50674,236340,263202
1629897213410,50680,236318,263197
1629897213420,50700,236353,263211
1629897213430,50704,236355,263217
1629897213440,50714,236394,263203
1629897213450,50724,236414,263207
1629897213460,50748,236408,263192
1629897213470,50754,236403,263180
1629897213480,50762,236405,263168
1629897213490,50765,236383,263125
1629897213500,50760,236326,263111
1629897213510,50742,236260,263079
1629897213520,50733,236144,263045
1629897213530,50701,236094,263049
1629897213540,50690,236083,263027
1629897213550,50671,236030,263024
1629897213560,50640,235991,263041
1629897213570,50625,236019,263045
1629897213580,50607,235979,263026
1629897213590,50590,235985,263045
1629897213600,50581,235955,263046
1629897213610,50571,235968,263026
1629897213620,50564,235960,263028
1629897213630,50553,235948,263024
1629897213640,50540,235924,263056
1629897213650,50533,235908,263027
1629897213660,50522,235883,262993
1629897213670,50501,235918,263008
1629897213680,50507,235909,263003
1629897213690,50490,235875,263015
1629897213700,50471,235887,263011
1629897213710,50461,235869,262989
1629897213720,50453,235901,263011
1629897213730,50447,235865,263024
1629897213740,50445,235862,263024
1629897213750,50444,235908,262975
1629897213760,50446,235916,263033
1629897213770,50448,235925,262997
1629897213780,50440,235922,263023
1629897213790,50449,235916,262999
1629897213800,50433,235907,263022
1629897213810,50443,235916,262998
1629897213820,50439,235891,263024
1629897213830,50444,235915,262966
1629897213840,50449,235891,263008
1629897213850,50445,235931,263000
1629897213860,50451,235943,263009
1629897213870,50448,235979,263020
1629897213880,50446,235936,263020
1629897213890,50462,235960,263036
1629897213900,50456,235966,263007
1629897213910,50464,235973,263019
1629897213920,50464,235986,263030
1629897213930,50483,235996,263021
1629897213940,50477,236014,263009
1629897213950,50485,236010,263020
1629897213960,50495,236023,263056
1629897213970,50493,236022,263072
1629897213980,50515,236049,263026
1629897213990,50519,236072,263027
1629897214000,50525,236055,263048
1629897214010,50536,236100,263055
1629897214020,50541,236115,263054
1629897214030,50550,236126,263048
1629897214040,50540,236120,263040
1629897214050,50562,236156,263070
1629897214060,50575,236154,263101
1629897214070,50575,236205,263080
1629897214080,50578,236196,263084
1629897214090,50585,236196,263068
1629897214100,50608,236177,263076
1629897214110,50614,236210,263080
1629897214120,50630,236254,263077
1629897214130,50638,236217,263081
1629897214140,50646,236239,263115
1629897214150,50656,236273,263155
1629897214160,50678,236284,263164
1629897214170,50687,236329,263129
1629897214180,50700,236350,263174
1629897214190,50702,236370,263194
1629897214200,50718,236383,263200
1629897214210,50722,236398,263181
1629897214220,50728,236400,263170
1629897214230,50741,236398,263188
1629897214240,50756,236399,263219
1629897214250,50766,236423,263216
1629897214260,50782,236428,263204
1629897214270,50798,236426,263189
1629897214280,50805,236464,263187
1629897214290,50821,236445,263198
1629897214300,50824,236495,263189
1629897214310,50828,236456,263177
1629897214320,50833,236437,263143
1629897214330,50819,236332,263125
1629897214340,50827,236274,263070
1629897214350,50786,236193,263065
1629897214360,50761,236155,263054
1629897214370,50746,236156,263033
1629897214380,50726,236084,263025
1629897214390,50708,236009,263030
1629897214400,50701,236100,263035
1629897214410,50688,236047,263054
1629897214420,50678,236060,263023
1629897214430,50677,236065,263049
1629897214440,50660,236058,263025
1629897214450,50665,236059,263039
1629897214460,50660,236034,262994
1629897214470,50648,236037,263033
1629897214480,50639,236042,263007
1629897214490,50628,236037,262993
1629897214500,50619,236010,262995
1629897214510,50616,236027,263017
1629897214520,50613,235994,263016
1629897214530,50601,236020,263008
1629897214540,50601,236011,263020
1629897214550,50605,235985,263050
1629897214560,50601,235984,263033
1629897214570,50604,236047,263012
1629897214580,50599,236044,263043
1629897214590,50607,236070,263040
1629897214600,50606,236062,263045
1629897214610,50619,236043,262990
1629897214620,50614,236043,263018
1629897214630,50615,236035,262989
1629897214640,50612,236036,263007
1629897214650,50602,236045,263018
1629897214660,50604,236032,263023
1629897214670,50612,236052,263010
1629897214680,50617,236068,263011
1629897214690,50618,236046,263005
1629897214700,50634,236079,263040
1629897214710,50631,236089,262998
1629897214720,50630,236096,263013
1629897214730,50631,236083,263004
1629897214740,50650,236092,263003
1629897214750,50650,236101,263015
1629897214760,50663,236127,263033
1629897214770,50665,236180,263047
1629897214780,50677,236121,263040
1629897214790,50682,236136,263034
1629897214800,50687,236182,263022
1629897214810,50702,236170,263076
1629897214820,50707,236220,263083
1629897214830,50703,236222,263066
1629897214840,50726,236212,263072
1629897214850,50733,236235,263060
1629897214860,50732,236246,263039
1629897214870,50737,236285,263050
1629897214880,50749,236285,263079
1629897214890,50757,236291,263111
1629897214900,50760,236313,263083
1629897214910,50773,236337,263055
1629897214920,50781,236329,263079
1629897214930,50797,236344,263102
1629897214940,50809,236350,263104
1629897214950,50819,236371,263118
1629897214960,50824,236372,263085
1629897214970,50842,236399,263124
1629897214980,50853,236425,263119
1629897214990,50856,236374,263114
1629897215000,50857,236436,263139
1629897215010,50874,236457,263125
1629897215020,50876,236479,263121
1629897215030,50892,236455,263104
1629897215040,50899,236457,263124
1629897215050,50913,236493,263131
1629897215060,50916,236450,263113
1629897215070,50915,236425,263058
1629897215080,50919,236421,263040
1629897215090,50911,236316,263009
1629897215100,50906,236278,262955
1629897215110,50882,236198,262972
1629897215120,50856,236166,262950
1629897215130,50832,236092,262944
1629897215140,50832,236104,262909
1629897215150,50804,236032,262947
1629897215160,50786,236064,262933
1629897215170,50771,236047,262934
1629897215180,50757,236072,262938
1629897215190,50754,236017,262955
1629897215200,50745,236039,262931
1629897215210,50741,235999,262897
1629897215220,50719,236009,262917
1629897215230,50710,236025,262935
1629897215240,50702,235989,262898
1629897215250,50690,235970,262910
1629897215260,50679,235979,262910
1629897215270,50676,235995,262885
1629897215280,50662,235933,262899
1629897215290,50649,235945,262886
1629897215300,50656,235914,262903
1629897215310,50654,235958,262885
1629897215320,50646,235982,262920
1629897215330,50641,235962,262871
1629897215340,50634,235954,262884
1629897215350,50641,235971,262871
1629897215360,50642,235980,262898
1629897215370,50631,236030,262892
1629897215380,50653,235964,262887
1629897215390,50648,235971,262872
1629897215400,50643,235953,262877
1629897215410,50646,235985,262880
1629897215420,50649,235975,262881
1629897215430,50648,235987,262889
1629897215440,50652,235975,262867
1629897215450,50651,236008,262883
1629897215460,50661,235978,262844
1629897215470,50658,235999,262880
1629897215480,50661,235982,262868
1629897215490,50648,235985,262872
1629897215500,50675,236001,262870
1629897215510,50657,236012,262867
1629897215520,50679,236030,262842
1629897215530,50685,236066,262879
1629897215540,50690,236054,262866
1629897215550,50690,236071,262853
1629897215560,50704,236058,262866
1629897215570,50711,236104,262877
1629897215580,50715,236101,262859
1629897215590,50726,236116,262886
1629897215600,50738,236126,262863
1629897215610,50739,236121,262867
1629897215620,50750,236127,262879
1629897215630,50743,236136,262879
1629897215640,50765,236146,262888
1629897215650,50767,236156,262917
1629897215660,50774,236178,262892
1629897215670,50793,236182,262902
1629897215680,50787,236179,262876
1629897215690,50792,236199,262902
1629897215700,50803,236200,262900
1629897215710,50816,236234,262869
1629897215720,50822,236247,262885
1629897215730,50834,236247,262911
1629897215740,50852,236236,262882
1629897215750,50851,236257,262896
1629897215760,50864,236240,262886
1629897215770,50869,236305,262883
1629897215780,50877,236282,262919
1629897215790,50891,236326,262904
1629897215800,50901,236323,262911
1629897215810,50899,236348,262906
1629897215820,50923,236358,262886
1629897215830,50920,236331,262897
1629897215840,50920,236336,262868
1629897215850,50933,236330,262889
1629897215860,50935,236266,262832
1629897215870,50921,236195,262781
1629897215880,50902,236134,262733
1629897215890,50883,236047,262714
1629897215900,50863,235988,262712
1629897215910,50839,235949,262730
1629897215920,50820,235917,262688
1629897215930,50811,235931,262707
1629897215940,50802,235910,262719
1629897215950,50785,235917,262706
1629897215960,50769,235890,262710
1629897215970,50750,235889,262694
1629897215980,50748,235869,262700
1629897215990,50721,235859,262688
1629897216000,50708,235857,262684
1629897216010,50698,235833,262675
1629897216020,50691,235786,262665
1629897216030,50680,235792,262670
1629897216040,50662,235781,262655
1629897216050,50655,235765,262642
1629897216060,50645,235739,262622
1629897216070,50625,235749,262655
1629897216080,50624,235759,262619
1629897216090,50598,235736,262639
1629897216100,50605,235726,262659
1629897216110,50598,235763,262672
1629897216120,50589,235743,262648
1629897216130,50584,235777,262624
1629897216140,50585,235777,262683
1629897216150,50594,235765,262649
1629897216160,50579,235779,262616
1629897216170,50577,235775,262640
1629897216180,50577,235753,262599
1629897216190,50578,235770,262613
1629897216200,50577,235775,262599
1629897216210,50584,235731,262610
1629897216220,50584,235792,262624
1629897216230,50579,235777,262593
1629897216240,50576,235764,262594
1629897216250,50588,235771,262586
1629897216260,50583,235791,262588
1629897216270,50589,235800,262609
1629897216280,50594,235798,262571
1629897216290,50598,235763,262588
1629897216300,50604,235782,262606
1629897216310,50605,235796,262606
1629897216320,50600,235828,262609
1629897216330,50616,235818,262589
1629897216340,50622,235812,262565
1629897216350,50624,235833,262605
1629897216360,50627,235848,262603
1629897216370,50635,235874,262591
1629897216380,50644,235868,262600
1629897216390,50647,235873,262607
1629897216400,50656,235904,262598
1629897216410,50664,235912,262622
1629897216420,50671,235888,262603
1629897216430,50681,235919,262620
1629897216440,50692,235928,262626
1629897216450,50698,235949,262638
1629897216460,50706,235948,262611
1629897216470,50713,235981,262616
1629897216480,50723,235999,262597
1629897216490,50721,235992,262627
1629897216500,50727,235996,262615
1629897216510,50740,236015,262603
1629897216520,50743,236033,262622
1629897216530,50750,236012,262607
1629897216540,50764,236040,262642
1629897216550,50783,236015,262639
1629897216560,50778,236037,262626
1629897216570,50787,236097,262644
1629897216580,50805,236057,262637
1629897216590,50806,236052,262639
1629897216600,50828,236101,262629
1629897216610,50821,236105,262607
1629897216620,50839,236130,262639
1629897216630,50842,236154,262637
1629897216640,50837,236132,262689
1629897216650,50863,236170,262632
1629897216660,50870,236181,262622
1629897216670,50871,236163,262615
1629897216680,50883,236135,262597
1629897216690,50888,236104,262565
1629897216700,50883,236051,262515
1629897216710,50859,235953,262505
1629897216720,50845,235882,262462
1629897216730,50829,235820,262450
1629897216740,50807,235806,262454
1629897216750,50785,235797,262481
1629897216760,50770,235749,262461
1629897216770,50749,235747,262490
1629897216780,50744,235763,262455
1629897216790,50725,235756,262477
1629897216800,50709,235712,262480
1629897216810,50684,235703,262459
1629897216820,50671,235687,262447
1629897216830,50665,235659,262464
1629897216840,50643,235633,262460
1629897216850,50630,235643,262438
1629897216860,50617,235620,262440
1629897216870,50607,235603,262420
1629897216880,50581,235612,262439
1629897216890,50572,235562,262440
1629897216900,50567,235615,262417
1629897216910,50550,235581,262423
1629897216920,50540,235570,262399
1629897216930,50533,235547,262415
1629897216940,50525,235583,262423
1629897216950,50507,235562,262435
1629897216960,50510,235550,262442
1629897216970,50502,235590,262408
1629897216980,50500,235559,262414
1629897216990,50509,235571,262393
1629897217000,50504,235568,262434
1629897217010,50497,235580,262426
1629897217020,50499,235547,262383
1629897217030,50491,235565,262387
1629897217040,50491,235578,262391
1629897217050,50494,235578,262405
1629897217060,50493,235541,262412
1629897217070,50492,235534,262385
1629897217080,50494,235566,262391
1629897217090,50487,235586,262396
1629897217100,50490,235595,262388
1629897217110,50486,235573,262406
1629897217120,50487,235631,262374
1629897217130,50492,235660,262376
1629897217140,50504,235632,262403
1629897217150,50510,235613,262402
1629897217160,50511,235640,262410
1629897217170,50516,235651,262400
1629897217180,50519,235677,262407
1629897217190,50527,235677,262403
1629897217200,50536,235665,262426
1629897217210,50539,235688,262396
1629897217220,50551,235705,262425
1629897217230,50547,235732,262427
1629897217240,50562,235683,262485
1629897217250,50571,235717,262446
1629897217260,50575,235749,262441
1629897217270,50580,235754,262426
1629897217280,50584,235758,262439
1629897217290,50595,235766,262443
1629897217300,50597,235809,262437
1629897217310,50603,235811,262475
1629897217320,50614,235828,262425
1629897217330,50619,235835,262472
1629897217340,50628,235838,262433
1629897217350,50636,235842,262425
1629897217360,50650,235837,262464
1629897217370,50654,235874,262461
1629897217380,50669,235921,262488
1629897217390,50687,235893,262474
1629897217400,50688,235917,262477
1629897217410,50693,235925,262470
1629897217420,50706,235899,262504
1629897217430,50705,235943,262481
1629897217440,50723,235947,262474
1629897217450,50724,235995,262493
1629897217460,50739,235962,262489
1629897217470,50741,235991,262455
1629897217480,50753,236003,262513
1629897217490,50758,236010,262505
1629897217500,50776,236061,262501
1629897217510,50787,236072,262500
1629897217520,50801,236112,262529
1629897217530,50824,236113,262535
1629897217540,50816,236086,262492
1629897217550,50830,236080,262499
1629897217560,50832,235990,262446
1629897217570,50826,235964,262415
1629897217580,50796,235882,262389
1629897217590,50797,235786,262367
1629897217600,50760,235739,262339
1629897217610,50750,235669,262341
1629897217620,50714,235673,262310
1629897217630,50702,235679,262334
1629897217640,50679,235678,262347
1629897217650,50671,235662,262360
1629897217660,50658,235640,262358
1629897217670,50649,235640,262354
1629897217680,50624,235621,262350
1629897217690,50609,235620,262324
1629897217700,50603,235564,262338
1629897217710,50594,235582,262341
1629897217720,50572,235568,262307
1629897217730,50562,235501,262314
1629897217740,50539,235505,262305
1629897217750,50529,235518,262303
1629897217760,50500,235464,262300
1629897217770,50488,235517,262267
1629897217780,50479,235485,262286
1629897217790,50478,235485,262283
1629897217800,50462,235441,262277
1629897217810,50459,235479,262276
1629897217820,50448,235471,262287
1629897217830,50445,235498,262288
1629897217840,50454,235480,262285
1629897217850,50453,235479,262303
1629897217860,50438,235483,262317
1629897217870,50449,235487,262298
1629897217880,50447,235514,262276
1629897217890,50452,235515,262285
1629897217900,50430,235492,262279
1629897217910,50441,235516,262260
1629897217920,50436,235491,262244
1629897217930,50427,235505,262282
1629897217940,50432,235494,262273
1629897217950,50438,235541,262263
1629897217960,50436,235545,262279
1629897217970,50431,235551,262289
1629897217980,50435,235535,262273
1629897217990,50440,235531,262281
1629897218000,50444,235591,262260
1629897218010,50455,235564,262313
1629897218020,50462,235577,262284
1629897218030,50458,235593,262292
1629897218040,50472,235612,262334
1629897218050,50471,235653,262317
1629897218060,50487,235598,262326
1629897218070,50488,235657,262338
1629897218080,50498,235671,262324
1629897218090,50499,235678,262337
1629897218100,50500,235688,262331
1629897218110,50504,235712,262362
1629897218120,50517,235716,262345
1629897218130,50519,235755,262337
1629897218140,50524,235744,262374
1629897218150,50525,235768,262357
1629897218160,50538,235735,262351
1629897218170,50552,235752,262372
1629897218180,50552,235771,262399
1629897218190,50566,235791,262373
1629897218200,50571,235785,262380
1629897218210,50588,235788,262367
1629897218220,50582,235834,262390
1629897218230,50592,235846,262388
1629897218240,50608,235879,262399
1629897218250,50624,235862,262422
1629897218260,50614,235902,262395
1629897218270,50628,235900,262407
1629897218280,50638,235897,262436
1629897218290,50654,235927,262402
1629897218300,50657,235947,262441
1629897218310,50673,235925,262414
1629897218320,50674,235933,262405
1629897218330,50693,235962,262404
1629897218340,50702,235955,262462
1629897218350,50705,235999,262477
1629897218360,50727,236028,262447
1629897218370,50730,236051,262465
1629897218380,50739,236089,262474
1629897218390,50755,236043,262476
1629897218400,50758,236062,262467
1629897218410,50783,236094,262459
1629897218420,50782,236093,262487
1629897218430,50796,236101,262436
1629897218440,50800,236091,262448
1629897218450,50809,236035,262422
1629897218460,50798,235982,262351
1629897218470,50791,235912,262355
1629897218480,50758,235851,262314
1629897218490,50739,235761,262311
1629897218500,50720,235739,262324
1629897218510,50710,235754,262310
1629897218520,50689,235739,262318
1629897218530,50673,235676,262332
1629897218540,50632,235694,262347
1629897218550,50648,235703,262316
1629897218560,50630,235647,262321
1629897218570,50603,235657,262340
1629897218580,50607,235664,262317
1629897218590,50581,235609,262309
1629897218600,50581,235617,262280
1629897218610,50562,235607,262296
1629897218620,50556,235610,262287
1629897218630,50535,235597,262295
1629897218640,50522,235585,262310
1629897218650,50513,235562,262317
1629897218660,50502,235578,262309
1629897218670,50493,235580,262301
1629897218680,50484,235586,262335
1629897218690,50479,235582,262316
1629897218700,50476,235600,262304
1629897218710,50472,235599,262323
1629897218720,50480,235604,262322
1629897218730,50471,235608,262332
1629897218740,50482,235637,262333
1629897218750,50470,235583,262347
1629897218760,50468,235638,262316
1629897218770,50466,235620,262330
1629897218780,50455,235618,262328
1629897218790,50456,235638,262323
1629897218800,50459,235665,262350
1629897218810,50466,235640,262349
1629897218820,50459,235624,262346
1629897218830,50469,235641,262337
1629897218840,50463,235655,262327
1629897218850,50464,235623,262379
1629897218860,50473,235661,262323
1629897218870,50470,235695,262341
1629897218880,50467,235686,262362
1629897218890,50484,235726,262344
1629897218900,50497,235736,262377
1629897218910,50498,235768,262345
1629897218920,50500,235754,262378
1629897218930,50509,235782,262377
1629897218940,50513,235756,262382
1629897218950,50517,235758,262425
1629897218960,50529,235803,262407
1629897218970,50539,235775,262399
1629897218980,50541,235837,262389
1629897218990,50555,235815,262391
1629897219000,50557,235838,262401
1629897219010,50568,235840,262377
1629897219020,50579,235861,262435
1629897219030,50578,235891,262424
1629897219040,50597,235894,262437
1629897219050,50582,235910,262388
1629897219060,50608,235908,262429
1629897219070,50609,235947,262449
1629897219080,50614,235910,262422
1629897219090,50623,235969,262467
1629897219100,50639,235954,262459
1629897219110,50642,235969,262502
1629897219120,50648,235949,262445
1629897219130,50662,235988,262470
1629897219140,50666,235990,262485
1629897219150,50678,236058,262478
1629897219160,50698,236042,262454
1629897219170,50690,236054,262484
1629897219180,50710,236038,262491
1629897219190,50720,236076,262522
1629897219200,50727,236051,262494
1629897219210,50741,236131,262499
1629897219220,50739,236121,262499
1629897219230,50747,236147,262512
1629897219240,50764,236146,262492
1629897219250,50768,236160,262525
1629897219260,50777,236160,262475
1629897219270,50795,236180,262530
1629897219280,50808,236161,262510
1629897219290,50817,236182,262494
1629897219300,50828,236186,262512
1629897219310,50834,236187,262525
1629897219320,50837,236205,262486
1629897219330,50834,236118,262451
1629897219340,50820,236003,262414
1629897219350,50809,235961,262394
1629897219360,50775,235932,262385
1629897219370,50764,235872,262376
1629897219380,50743,235828,262358
1629897219390,50733,235835,262396
1629897219400,50702,235801,262367
1629897219410,50698,235812,262388
1629897219420,50686,235818,262390
1629897219430,50672,235783,262390
1629897219440,50665,235819,262363
1629897219450,50658,235774,262373
1629897219460,50645,235791,262421
1629897219470,50639,235786,262403
1629897219480,50632,235762,262388
1629897219490,50631,235790,262372
1629897219500,50629,235771,262403
1629897219510,50615,235764,262398
1629897219520,50606,235781,262372
1629897219530,50597,235744,262379
1629897219540,50597,235775,262400
1629897219550,50597,235751,262402
1629897219560,50593,235756,262382
1629897219570,50589,235751,262397
1629897219580,50596,235768,262408
1629897219590,50605,235825,262417
1629897219600,50610,235798,262411
1629897219610,50601,235842,262411
1629897219620,50601,235816,262381
1629897219630,50603,235791,262374
1629897219640,50593,235774,262377
1629897219650,50607,235793,262398
1629897219660,50594,235798,262367
1629897219670,50604,235808,262414
1629897219680,50606,235845,262394
1629897219690,50600,235834,262436
1629897219700,50600,235809,262427
1629897219710,50618,235842,262376
1629897219720,50624,235871,262389
1629897219730,50613,235799,262418
1629897219740,50616,235856,262425
1629897219750,50638,235883,262420
1629897219760,50635,235886,262424
1629897219770,50646,235904,262425
1629897219780,50653,235889,262437
1629897219790,50662,235938,262459
1629897219800,50663,235941,262494
1629897219810,50681,235951,262491
1629897219820,50698,235960,262477
1629897219830,50701,235993,262485
1629897219840,50691,235985,262470
1629897219850,50711,236021,262474
1629897219860,50721,236034,262482
1629897219870,50742,236059,262504
1629897219880,50729,236073,262509
1629897219890,50744,236052,262496
1629897219900,50750,236068,262542
1629897219910,50751,236082,262506
1629897219920,50765,236074,262505
1629897219930,50765,236137,262557
1629897219940,50788,236113,262528
1629897219950,50791,236152,262554
1629897219960,50806,236181,262522
1629897219970,50799,236161,262539
1629897219980,50824,236189,262547
1629897219990,50836,236191,262573
1629897220000,50836,236209,262553
1629897220010,50860,236216,262546
1629897220020,50845,236219,262610
1629897220030,50867,236273,262571
1629897220040,50882,236248,262604
1629897220050,50890,236273,262557
1629897220060,50884,236283,262572
1629897220070,50912,236292,262592
1629897220080,50916,236311,262581
1629897220090,50934,236334,262605
1629897220100,50930,236322,262582
1629897220110,50948,236308,262565
1629897220120,50943,236290,262584
1629897220130,50949,236239,262522
1629897220140,50940,236170,262512
1629897220150,50922,236113,262477
1629897220160,50910,236011,262423
1629897220170,50877,235983,262458
1629897220180,50863,235957,262466
1629897220190,50847,235945,262455
1629897220200,50822,235948,262461
1629897220210,50816,235902,262458
1629897220220,50800,235932,262477
1629897220230,50787,235895,262485
1629897220240,50775,235916,262464
1629897220250,50773,235877,262450
1629897220260,50766,235884,262444
1629897220270,50755,235888,262445
1629897220280,50736,235877,262441
1629897220290,50734,235864,262449
1629897220300,50726,235861,262433
1629897220310,50712,235830,262425
1629897220320,50709,235855,262431
1629897220330,50699,235825,262446
1629897220340,50694,235818,262457
1629897220350,50682,235821,262406
1629897220360,50678,235854,262429
1629897220370,50675,235841,262438
1629897220380,50679,235841,262441
1629897220390,50679,235835,262444
1629897220400,50679,235886,262454
1629897220410,50686,235886,262472
1629897220420,50677,235896,262460
1629897220430,50689,235884,262436
1629897220440,50696,235870,262430
1629897220450,50691,235854,262423
1629897220460,50683,235871,262387
1629897220470,50685,235858,262427
1629897220480,50678,235906,262426
1629897220490,50694,235917,262460
1629897220500,50701,235922,262480
1629897220510,50719,235892,262444
1629897220520,50718,235932,262460
1629897220530,50714,235923,262468
1629897220540,50722,235932,262429
1629897220550,50731,235946,262483
1629897220560,50733,235994,262470
1629897220570,50737,235982,262472
1629897220580,50742,236020,262488
1629897220590,50753,236010,262472
1629897220600,50767,236007,262519
1629897220610,50779,236055,262504
1629897220620,50783,236055,262488
1629897220630,50793,236036,262506
1629897220640,50804,236073,262529
1629897220650,50811,236108,262522
1629897220660,50814,236124,262516
1629897220670,50832,236162,262541
1629897220680,50832,236152,262521
1629897220690,50844,236153,262520
1629897220700,50850,236141,262537
1629897220710,50859,236202,262527
1629897220720,50870,236186,262526
1629897220730,50872,236204,262544
1629897220740,50888,236237,262555
1629897220750,50897,236220,262541
1629897220760,50905,236294,262566
1629897220770,50926,236249,262579
1629897220780,50931,236253,262589
1629897220790,50935,236271,262554
1629897220800,50942,236287,262580
1629897220810,50954,236293,262550
1629897220820,50961,236330,262589
1629897220830,50967,236314,262588
1629897220840,50983,236367,262595
1629897220850,51003,236354,262624
1629897220860,51003,236386,262617
1629897220870,51007,236359,262614
1629897220880,51024,236403,262630
1629897220890,51029,236429,262621
1629897220900,51045,236432,262598
1629897220910,51056,236433,262600
1629897220920,51059,236436,262610
1629897220930,51082,236449,262588
1629897220940,51079,236437,262582
1629897220950,51084,236372,262551
1629897220960,51080,236271,262511
1629897220970,51058,236198,262461
1629897220980,51031,236088,262468
1629897220990,51022,236051,262424
1629897221000,51006,236046,262406
1629897221010,50975,236018,262437
1629897221020,50952,236017,262447
1629897221030,50939,235977,262418
1629897221040,50931,235985,262441
1629897221050,50914,235981,262429
1629897221060,50904,235961,262438
1629897221070,50893,235921,262444
1629897221080,50874,235957,262436
1629897221090,50869,235921,262426
1629897221100,50864,235918,262436
1629897221110,50845,235919,262427
1629897221120,50823,235866,262430
1629897221130,50809,235884,262392
1629897221140,50814,235833,262421
1629897221150,50783,235840,262405
1629897221160,50783,235842,262382
1629897221170,50769,235825,262394
1629897221180,50758,235818,262374
1629897221190,50753,235842,262386
1629897221200,50746,235841,262395
1629897221210,50748,235858,262419
1629897221220,50748,235820,262421
1629897221230,50735,235880,262400
1629897221240,50740,235843,262385
1629897221250,50742,235865,262447
1629897221260,50740,235820,262371
1629897221270,50733,235845,262359
1629897221280,50741,235851,262357
1629897221290,50744,235856,262386
1629897221300,50748,235806,262387
1629897221310,50745,235862,262391
1629897221320,50746,235839,262372
1629897221330,50756,235823,262386
1629897221340,50743,235877,262379
1629897221350,50754,235880,262373
1629897221360,50752,235885,262389
1629897221370,50748,235860,262384
1629897221380,50757,235902,262356
1629897221390,50766,235927,262375
1629897221400,50776,235896,262378
1629897221410,50780,235879,262415
1629897221420,50782,235924,262376
1629897221430,50780,235965,262420
1629897221440,50795,235969,262381
1629897221450,50809,235998,262395
1629897221460,50814,235968,262390
1629897221470,50819,236014,262392
1629897221480,50821,236020,262402
1629897221490,50841,236003,262411
1629897221500,50849,236060,262408
1629897221510,50844,236063,262435
1629897221520,50849,236057,262436
1629897221530,50866,236081,262474
1629897221540,50880,236073,262428
1629897221550,50881,236112,262441
1629897221560,50891,236094,262446
1629897221570,50901,236117,262454
1629897221580,50908,236117,262448
1629897221590,50914,236134,262442
1629897221600,50929,236155,262460
1629897221610,50930,236187,262487
1629897221620,50945,236169,262479
1629897221630,50949,236207,262488
1629897221640,50949,236163,262442
1629897221650,50981,236216,262496
1629897221660,50992,236205,262477
1629897221670,50994,236244,262488
1629897221680,50995,236265,262482
1629897221690,51013,236244,262486
1629897221700,51015,236257,262464
1629897221710,51025,236240,262458
1629897221720,51031,236322,262489
1629897221730,51052,236313,262490
1629897221740,51061,236320,262493
1629897221750,51071,236338,262546
1629897221760,51080,236361,262505
1629897221770,51090,236363,262526
1629897221780,51095,236361,262511
1629897221790,51106,236373,262484
1629897221800,51114,236384,262507
1629897221810,51113,236410,262476
1629897221820,51130,236348,262476
1629897221830,51128,236277,262424
1629897221840,51109,236164,262376
1629897221850,51087,236093,262311
1629897221860,51067,236051,262313
1629897221870,51042,235972,262321
1629897221880,51016,235954,262313
1629897221890,51004,235942,262305
1629897221900,50982,235901,262305
1629897221910,50976,235903,262312
1629897221920,50963,235897,262315
1629897221930,50944,235872,262301
1629897221940,50930,235838,262288
1629897221950,50913,235865,262289
1629897221960,50904,235829,262269
1629897221970,50886,235797,262273
1629897221980,50865,235756,262271
1629897221990,50852,235794,262299
1629897222000,50840,235779,262275
1629897222010,50826,235746,262237
1629897222020,50803,235729,262256
1629897222030,50798,235696,262242
1629897222040,50786,235713,262228
1629897222050,50772,235697,262231
1629897222060,50763,235715,262229
1629897222070,50754,235698,262226
1629897222080,50747,235688,262236
1629897222090,50746,235709,262219
1629897222100,50741,235730,262252
1629897222110,50746,235722,262209
1629897222120,50743,235704,262237
1629897222130,50736,235708,262246
1629897222140,50739,235740,262214
1629897222150,50733,235727,262234
1629897222160,50726,235711,262238
1629897222170,50726,235703,262198
1629897222180,50728,235711,262198
1629897222190,50723,235741,262221
1629897222200,50731,235750,262226
1629897222210,50728,235720,262221
1629897222220,50724,235753,262211
1629897222230,50736,235718,262207
1629897222240,50742,235743,262230
1629897222250,50735,235749,262230
1629897222260,50737,235754,262202
1629897222270,50750,235741,262212
1629897222280,50755,235795,262213
1629897222290,50760,235830,262206
1629897222300,50764,235781,262203
1629897222310,50769,235811,262223
1629897222320,50770,235837,262232
1629897222330,50787,235858,262218
1629897222340,50780,235858,262232
1629897222350,50784,235850,262229
1629897222360,50796,235888,262261
1629897222370,50802,235864,262246
1629897222380,50813,235902,262216
1629897222390,50811,235930,262277
1629897222400,50816,235899,262251
1629897222410,50831,235899,262271
1629897222420,50841,235942,262268
1629897222430,50846,235980,262270
1629897222440,50864,235983,262287
1629897222450,50878,236026,262276
1629897222460,50867,236022,262307
1629897222470,50880,236034,262300
1629897222480,50885,236035,262284
1629897222490,50888,236043,262301
1629897222500,50899,236040,262285
1629897222510,50907,236074,262303
1629897222520,50914,236085,262281
1629897222530,50927,236084,262301
1629897222540,50936,236093,262297
1629897222550,50946,236120,262311
1629897222560,50957,236130,262324
1629897222570,50959,236147,262302
1629897222580,50966,236134,262317
1629897222590,50973,236134,262332
1629897222600,50991,236119,262309
1629897222610,50989,236148,262306
1629897222620,51007,236184,262333
1629897222630,51012,236219,262323
1629897222640,51028,236197,262332
1629897222650,51032,236245,262308
1629897222660,51040,236232,262322
1629897222670,51046,236215,262309
1629897222680,51051,236267,262329
1629897222690,51065,236256,262318
1629897222700,51074,236240,262336
1629897222710,51089,236250,262328
1629897222720,51086,236208,262291
1629897222730,51069,236126,262214
1629897222740,51070,236028,262150
1629897222750,51035,235962,262153
1629897222760,51016,235860,262135
1629897222770,51005,235857,262121
1629897222780,50972,235829,262108
1629897222790,50950,235765,262146
1629897222800,50932,235770,262138
1629897222810,50916,235806,262142
1629897222820,50894,235770,262110
1629897222830,50887,235760,262101
1629897222840,50871,235724,262142
1629897222850,50852,235702,262105
1629897222860,50841,235691,262067
1629897222870,50824,235691,262107
1629897222880,50811,235662,262077
1629897222890,50798,235645,262092
1629897222900,50781,235645,262050
1629897222910,50767,235604,262072
1629897222920,50756,235588,262045
1629897222930,50742,235577,262032
1629897222940,50721,235589,262055
1629897222950,50722,235600,262052
1629897222960,50709,235619,262065
1629897222970,50695,235606,262068
1629897222980,50691,235598,262030
1629897222990,50690,235595,262060
1629897223000,50695,235619,262080
1629897223010,50684,235632,262046
1629897223020,50686,235597,262017
1629897223030,50683,235620,262043
1629897223040,50677,235592,262052
1629897223050,50672,235587,262044
1629897223060,50671,235630,262032
1629897223070,50664,235609,262022
1629897223080,50666,235632,262026
1629897223090,50669,235609,261995
1629897223100,50678,235621,262004
1629897223110,50672,235625,261991
1629897223120,50656,235623,262027
1629897223130,50670,235633,262019
1629897223140,50671,235645,262046
1629897223150,50672,235660,262041
1629897223160,50674,235665,262027
1629897223170,50682,235704,262052
1629897223180,50688,235715,262052
1629897223190,50692,235701,262036
1629897223200,50695,235751,262058
1629897223210,50704,235736,262052
1629897223220,50709,235731,262063
1629897223230,50713,235752,262043
1629897223240,50719,235738,262041
1629897223250,50718,235773,262072
1629897223260,50738,235797,262070
1629897223270,50746,235800,262066
1629897223280,50739,235813,262051
1629897223290,50750,235818,262041
1629897223300,50752,235819,262039
1629897223310,50752,235807,262072
1629897223320,50767,235863,262071
1629897223330,50774,235863,262074
1629897223340,50774,235847,262046
1629897223350,50790,235886,262071
1629897223360,50802,235878,262083
1629897223370,50797,235904,262079
1629897223380,50809,235915,262075
1629897223390,50814,235940,262063
1629897223400,50823,235916,262055
1629897223410,50831,235934,262076
1629897223420,50842,235977,262081
1629897223430,50850,235928,262062
1629897223440,50849,235981,262070
1629897223450,50867,235972,262085
1629897223460,50873,236006,262083
1629897223470,50875,236022,262095
1629897223480,50887,236031,262150
1629897223490,50896,236013,262083
1629897223500,50899,236066,262107
1629897223510,50920,236074,262122
1629897223520,50921,236095,262146
1629897223530,50936,236104,262116
1629897223540,50942,236085,262116
1629897223550,50957,236097,262115
1629897223560,50964,236140,262128
1629897223570,50972,236125,262113
1629897223580,50983,236152,262091
1629897223590,50989,236179,262153
1629897223600,50993,236109,262101
1629897223610,50991,236047,262063
1629897223620,50979,236022,262040
1629897223630,50965,235929,262005
1629897223640,50938,235831,261963
1629897223650,50914,235784,261911
1629897223660,50897,235741,261945
1629897223670,50869,235709,261927
1629897223680,50849,235707,261959
1629897223690,50832,235673,261928
1629897223700,50815,235666,261925
1629897223710,50807,235649,261925
1629897223720,50781,235630,261925
1629897223730,50784,235638,261933
1629897223740,50764,235601,261912
1629897223750,50751,235605,261930
1629897223760,50732,235602,261908
1629897223770,50721,235596,261912
1629897223780,50703,235571,261914
1629897223790,50692,235572,261898
1629897223800,50687,235568,261896
1629897223810,50670,235566,261899
1629897223820,50655,235526,261898
1629897223830,50649,235523,261870
1629897223840,50643,235525,261886
1629897223850,50633,235542,261895
1629897223860,50636,235534,261872
1629897223870,50634,235562,261903
1629897223880,50631,235603,261883
1629897223890,50630,235555,261891
1629897223900,50617,235571,261893
1629897223910,50620,235547,261862
1629897223920,50622,235581,261869
1629897223930,50607,235587,261830
1629897223940,50620,235577,261862
1629897223950,50609,235558,261840
1629897223960,50606,235573,261866
1629897223970,50600,235604,261871
1629897223980,50596,235568,261860
1629897223990,50605,235544,261851
1629897224000,50598,235573,261857
1629897224010,50609,235578,261841
1629897224020,50609,235557,261844
1629897224030,50608,235610,261850
1629897224040,50617,235616,261843
1629897224050,50620,235628,261884
1629897224060,50623,235592,261861
1629897224070,50633,235634,261843
1629897224080,50634,235668,261907
1629897224090,50634,235652,261855
1629897224100,50639,235683,261889
1629897224110,50650,235690,261897
1629897224120,50656,235681,261872
1629897224130,50661,235697,261906
1629897224140,50662,235715,261899
1629897224150,50669,235756,261927
1629897224160,50680,235765,261930
1629897224170,50681,235756,261926
1629897224180,50700,235798,261927
1629897224190,50703,235792,261899
1629897224200,50713,235778,261945
1629897224210,50718,235796,261938
1629897224220,50729,235802,261938
1629897224230,50740,235802,261957
1629897224240,50736,235858,261916
1629897224250,50736,235855,261941
1629897224260,50757,235862,261919
1629897224270,50762,235873,261911
1629897224280,50768,235858,261931
1629897224290,50778,235882,261901
1629897224300,50775,235882,261971
1629897224310,50791,235905,261968
1629897224320,50796,235954,261965
1629897224330,50812,235932,261951
1629897224340,50813,235928,261978
1629897224350,50824,235978,261976
1629897224360,50838,235958,261956
1629897224370,50829,235991,261966
1629897224380,50851,236023,261985
1629897224390,50859,236018,261979
1629897224400,50868,236004,261933
1629897224410,50873,236029,261967
1629897224420,50886,235994,261941
1629897224430,50896,236028,261958
1629897224440,50897,236000,261941
1629897224450,50902,235970,261919
1629897224460,50881,235902,261898
1629897224470,50869,235809,261840
1629897224480,50840,235756,261810
1629897224490,50816,235684,261839
1629897224500,50791,235639,261795
1629897224510,50768,235601,261790
1629897224520,50751,235558,261782
1629897224530,50739,235581,261776
1629897224540,50729,235567,261757
1629897224550,50697,235556,261802
1629897224560,50698,235535,261784
1629897224570,50687,235562,261770
1629897224580,50682,235546,261778
1629897224590,50664,235529,261786
1629897224600,50649,235545,261801
1629897224610,50634,235537,261767
1629897224620,50625,235519,261770
1629897224630,50619,235507,261763
1629897224640,50600,235493,261749
1629897224650,50596,235468,261747
1629897224660,50590,235496,261723
1629897224670,50594,235479,261738
1629897224680,50589,235497,261751
1629897224690,50578,235466,261751
1629897224700,50580,235473,261762
1629897224710,50581,235530,261762
1629897224720,50575,235495,261787
1629897224730,50580,235514,261762
1629897224740,50573,235502,261760
1629897224750,50571,235500,261746
1629897224760,50572,235491,261715
1629897224770,50567,235529,261736
1629897224780,50558,235523,261714
1629897224790,50559,235515,261725
1629897224800,50564,235492,261736
1629897224810,50569,235496,261784
1629897224820,50571,235522,261782
1629897224830,50572,235563,261781
1629897224840,50563,235518,261771
1629897224850,50576,235551,261737
1629897224860,50579,235549,261774
1629897224870,50578,235589,261814
1629897224880,50596,235593,261804
1629897224890,50578,235611,261812
1629897224900,50592,235621,261836
1629897224910,50603,235653,261791
1629897224920,50602,235643,261845
1629897224930,50617,235682,261804
1629897224940,50618,235677,261839
1629897224950,50633,235700,261806
1629897224960,50648,235726,261858
1629897224970,50643,235685,261845
1629897224980,50649,235739,261852
1629897224990,50662,235733,261852
1629897225000,50664,235775,261872
1629897225010,50677,235782,261854
1629897225020,50680,235749,261881
1629897225030,50682,235755,261883
1629897225040,50692,235787,261848
1629897225050,50703,235880,261875
1629897225060,50720,235813,261864
1629897225070,50715,235839,261860
1629897225080,50720,235823,261893
1629897225090,50731,235855,261845
1629897225100,50736,235889,261873
1629897225110,50750,235881,261886
1629897225120,50752,235903,261885
1629897225130,50756,235913,261895
1629897225140,50778,235875,261896
1629897225150,50786,235904,261880
1629897225160,50798,235935,261918
1629897225170,50794,235945,261907
1629897225180,50807,235951,261901
1629897225190,50822,235952,261893
1629897225200,50831,235965,261903
1629897225210,50837,235970,261891
1629897225220,50842,235983,261921
1629897225230,50857,236006,261865
1629897225240,50855,235945,261844
1629897225250,50848,235873,261810
1629897225260,50825,235791,261786
1629897225270,50805,235685,261767
1629897225280,50794,235669,261748
1629897225290,50763,235604,261716
1629897225300,50737,235585,261735
1629897225310,50719,235580,261726
1629897225320,50695,235534,261699
1629897225330,50684,235522,261720
1629897225340,50673,235505,261727
1629897225350,50657,235506,261753
1629897225360,50645,235501,261719
1629897225370,50631,235490,261722
1629897225380,50620,235477,261717
1629897225390,50609,235503,261719
1629897225400,50605,235460,261739
1629897225410,50576,235456,261721
1629897225420,50568,235445,261706
1629897225430,50545,235449,261697
1629897225440,50539,235454,261705
1629897225450,50533,235428,261692
1629897225460,50522,235386,261680
1629897225470,50508,235413,261694
1629897225480,50508,235433,261698
1629897225490,50512,235431,261714
1629897225500,50500,235442,261714
1629897225510,50508,235410,261714
1629897225520,50512,235465,261734
1629897225530,50494,235491,261726
1629897225540,50498,235464,261711
1629897225550,50513,235447,261690
1629897225560,50491,235482,261724
1629897225570,50500,235439,261730
1629897225580,50494,235441,261726
1629897225590,50496,235477,261712
1629897225600,50502,235481,261690
1629897225610,50490,235475,261699
1629897225620,50501,235491,261701
1629897225630,50496,235493,261735
1629897225640,50497,235490,261721
1629897225650,50501,235482,261713
1629897225660,50507,235515,261708
1629897225670,50499,235490,261715
1629897225680,50521,235558,261742
1629897225690,50519,235570,261718
1629897225700,50530,235546,261715
1629897225710,50537,235590,261736
1629897225720,50536,235603,261755
1629897225730,50545,235636,261768
1629897225740,50550,235614,261762
1629897225750,50556,235618,261760
1629897225760,50566,235640,261736
1629897225770,50577,235675,261735
1629897225780,50586,235673,261781
1629897225790,50583,235656,261797
1629897225800,50603,235706,261806
1629897225810,50614,235735,261785
1629897225820,50617,235685,261805
1629897225830,50630,235708,261796
1629897225840,50637,235759,261812
1629897225850,50633,235736,261804
1629897225860,50646,235793,261795
1629897225870,50666,235775,261790
1629897225880,50665,235803,261801
1629897225890,50667,235766,261793
1629897225900,50680,235785,261831
1629897225910,50689,235820,261824
1629897225920,50702,235843,261824
1629897225930,50726,235845,261843
1629897225940,50718,235886,261841
1629897225950,50726,235878,261816
1629897225960,50743,235888,261860
1629897225970,50748,235916,261860
1629897225980,50765,235924,261836
1629897225990,50768,235930,261854
1629897226000,50779,235957,261847
1629897226010,50779,235970,261877
1629897226020,50805,235963,261848
1629897226030,50804,235921,261835
1629897226040,50792,235897,261794
1629897226050,50788,235799,261749
1629897226060,50776,235709,261731
1629897226070,50749,235677,261704
1629897226080,50717,235614,261686
1629897226090,50698,235541,261675
1629897226100,50673,235517,261695
1629897226110,50647,235511,261680
1629897226120,50628,235499,261694
1629897226130,50610,235483,261660
1629897226140,50594,235478,261681
1629897226150,50582,235455,261701
1629897226160,50566,235454,261650
1629897226170,50541,235424,261647
1629897226180,50537,235446,261708
1629897226190,50526,235405,261654
1629897226200,50505,235388,261657
1629897226210,50491,235395,261646
1629897226220,50469,235364,261652
1629897226230,50460,235398,261644
1629897226240,50452,235376,261646
1629897226250,50436,235343,261614
1629897226260,50411,235348,261632
1629897226270,50413,235321,261612
1629897226280,50405,235359,261611
1629897226290,50394,235320,261623
1629897226300,50386,235328,261633
1629897226310,50388,235331,261604
1629897226320,50398,235295,261635
1629897226330,50394,235354,261648
1629897226340,50398,235345,261636
1629897226350,50395,235359,261636
1629897226360,50388,235321,261627
1629897226370,50398,235364,261616
1629897226380,50385,235359,261611
1629897226390,50381,235352,261604
1629897226400,50380,235348,261614
1629897226410,50382,235373,261607
1629897226420,50380,235386,261641
1629897226430,50381,235368,261599
1629897226440,50396,235373,261605
1629897226450,50390,235338,261617
1629897226460,50386,235369,261599
1629897226470,50395,235380,261597
1629897226480,50403,235402,261627
1629897226490,50414,235384,261598
1629897226500,50412,235423,261639
1629897226510,50424,235423,261642
1629897226520,50414,235455,261627
1629897226530,50429,235428,261621
1629897226540,50437,235464,261662
1629897226550,50446,235478,261637
1629897226560,50462,235482,261644
1629897226570,50458,235493,261653
1629897226580,50464,235509,261636
1629897226590,50467,235525,261635
1629897226600,50487,235524,261666
1629897226610,50495,235548,261681
1629897226620,50498,235542,261667
1629897226630,50511,235560,261663
1629897226640,50517,235604,261690
1629897226650,50535,235581,261676
1629897226660,50541,235635,261686
1629897226670,50532,235630,261703
1629897226680,50550,235626,261676
1629897226690,50563,235658,261689
1629897226700,50574,235661,261695
1629897226710,50586,235675,261692
1629897226720,50592,235682,261708
1629897226730,50611,235694,261678
1629897226740,50614,235727,261688
1629897226750,50615,235743,261723
1629897226760,50626,235742,261693
1629897226770,50641,235733,261706
1629897226780,50652,235753,261745
1629897226790,50661,235774,261737
1629897226800,50667,235752,261744
1629897226810,50671,235802,261717
1629897226820,50691,235824,261745
1629897226830,50687,235816,261726
1629897226840,50715,235857,261759
1629897226850,50714,235850,261698
1629897226860,50724,235830,261729
1629897226870,50725,235847,261688
1629897226880,50735,235800,261684
1629897226890,50736,235735,261657
1629897226900,50705,235637,261603
1629897226910,50687,235511,261563
1629897226920,50672,235496,261557
1629897226930,50647,235428,261541
1629897226940,50623,235446,261559
1629897226950,50605,235396,261577
1629897226960,50586,235390,261562
1629897226970,50564,235383,261555
1629897226980,50536,235363,261579
1629897226990,50532,235368,261568
1629897227000,50513,235351,261566
1629897227010,50495,235308,261530
1629897227020,50484,235320,261529
1629897227030,50457,235297,261550
1629897227040,50442,235260,261536
1629897227050,50434,235288,261509
1629897227060,50418,235231,261523
1629897227070,50395,235211,261522
1629897227080,50372,235189,261519
1629897227090,50360,235200,261478
1629897227100,50350,235197,261490
1629897227110,50340,235154,261498
1629897227120,50324,235166,261499
1629897227130,50330,235148,261483
1629897227140,50312,235159,261494
1629897227150,50310,235188,261485
1629897227160,50305,235193,261477
1629897227170,50310,235207,261492
1629897227180,50294,235190,261480
1629897227190,50299,235210,261458
1629897227200,50300,235155,261448
1629897227210,50298,235141,261471
1629897227220,50286,235186,261460
1629897227230,50293,235170,261453
1629897227240,50292,235234,261463
1629897227250,50286,235203,261486
1629897227260,50290,235207,261456
1629897227270,50294,235209,261475
1629897227280,50292,235211,261465
1629897227290,50296,235226,261465
1629897227300,50296,235197,261431
1629897227310,50294,235263,261473
1629897227320,50305,235235,261474
1629897227330,50304,235252,261473
1629897227340,50317,235254,261471
1629897227350,50321,235281,261506
1629897227360,50329,235286,261479
1629897227370,50335,235277,261493
1629897227380,50343,235295,261492
1629897227390,50336,235309,261483
1629897227400,50356,235351,261481
1629897227410,50354,235377,261471
1629897227420,50381,235334,261494
1629897227430,50379,235374,261475
1629897227440,50387,235341,261484
1629897227450,50388,235400,261520
1629897227460,50395,235380,261515
1629897227470,50399,235400,261515
1629897227480,50416,235416,261524
1629897227490,50422,235425,261501
1629897227500,50442,235458,261523
1629897227510,50447,235431,261506
1629897227520,50449,235457,261515
1629897227530,50460,235480,261558
1629897227540,50470,235499,261501
1629897227550,50483,235521,261526
1629897227560,50482,235502,261541
1629897227570,50496,235525,261518
1629897227580,50506,235532,261556
1629897227590,50525,235575,261534
1629897227600,50527,235578,261529
1629897227610,50536,235589,261528
1629897227620,50546,235562,261560
1629897227630,50550,235588,261553
1629897227640,50572,235579,261545
