timestamp,green,ir,red
1629880721625,99279,301241,393362
1629880721635,99286,301253,393374
1629880721645,99273,301239,393354
1629880721655,99299,301282,393384
1629880721665,99290,301280,393440
1629880721675,99307,301240,393435
1629880721685,99303,301261,393487
1629880721695,99317,301322,393428
1629880721705,99326,301340,393490
1629880721715,99344,301348,393514
1629880721725,99358,301359,393519
1629880721735,99380,301389,393526
1629880721745,99394,301412,393591
1629880721755,99431,301458,393666
1629880721765,99433,301495,393667
1629880721775,99472,301523,393650
1629880721785,99483,301543,393706
1629880721795,99492,301534,393712
1629880721805,99496,301563,393708
1629880721815,99513,301534,393690
1629880721825,99513,301522,393717
1629880721835,99525,301493,393698
1629880721845,99527,301486,393708
1629880721855,99526,301528,393692
1629880721865,99528,301498,393667
1629880721875,99522,301466,393668
1629880721885,99504,301456,393623
1629880721895,99512,301417,393627
1629880721905,99494,301385,393623
1629880721915,99480,301378,393620
1629880721925,99469,301380,393575
1629880721935,99441,301321,393547
1629880721945,99434,301302,393515
1629880721955,99418,301307,393527
1629880721965,99400,301277,393526
1629880721975,99402,301269,393465
1629880721985,99374,301246,393519
1629880721995,99375,301243,393468
1629880722005,99354,301246,393461
1629880722015,99352,301269,393431
1629880722025,99330,301217,393492
1629880722035,99327,301246,393462
1629880722045,99327,301249,393463
1629880722055,99324,301315,393457
1629880722065,99335,301218,393495
1629880722075,99342,301295,393518
1629880722085,99342,301257,393543
1629880722095,99343,301265,393470
1629880722105,99340,301266,393499
1629880722115,99354,301329,393550
1629880722125,99338,301284,393510
1629880722135,99372,301348,393550
1629880722145,99382,301341,393579
1629880722155,99390,301351,393577
1629880722165,99397,301418,393617
1629880722175,99420,301394,393639
1629880722185,99417,301362,393662
1629880722195,99418,301451,393627
1629880722205,99442,301467,393599
1629880722215,99443,301449,393656
1629880722225,99458,301438,393664
1629880722235,99484,301459,393700
1629880722245,99472,301476,393688
1629880722255,99487,301470,393677
1629880722265,99480,301468,393703
1629880722275,99487,301441,393709
1629880722285,99485,301456,393706
1629880722295,99479,301479,393677
1629880722305,99468,301450,393667
1629880722315,99479,301455,393712
1629880722325,99482,301489,393671
1629880722335,99485,301431,393675
1629880722345,99475,301438,393645
1629880722355,99460,301389,393634
1629880722365,99462,301375,393629
1629880722375,99464,301416,393627
1629880722385,99458,301381,393661
1629880722395,99454,301386,393595
1629880722405,99465,301404,393602
1629880722415,99457,301398,393569
1629880722425,99462,301396,393554
1629880722435,99459,301365,393596
1629880722445,99475,301371,393581
1629880722455,99472,301403,393581
1629880722465,99476,301360,393595
1629880722475,99495,301429,393578
1629880722485,99489,301416,393624
1629880722495,99513,301383,393605
1629880722505,99515,301453,393600
1629880722515,99524,301423,393598
1629880722525,99521,301366,393617
1629880722535,99521,301390,393593
1629880722545,99538,301370,393586
1629880722555,99522,301397,393610
1629880722565,99546,301391,393646
1629880722575,99554,301385,393616
1629880722585,99553,301425,393637
1629880722595,99541,301394,393658
1629880722605,99546,301391,393650
1629880722615,99525,301375,393667
1629880722625,99527,301341,393670
1629880722635,99543,301391,393691
1629880722645,99522,301387,393686
1629880722655,99528,301415,393706
1629880722665,99525,301425,393703
1629880722675,99525,301387,393678
1629880722685,99522,301365,393707
1629880722695,99513,301368,393702
1629880722705,99504,301345,393682
1629880722715,99489,301387,393691
1629880722725,99483,301373,393700
1629880722735,99487,301360,393652
1629880722745,99482,301411,393657
1629880722755,99480,301356,393634
1629880722765,99460,301367,393686
1629880722775,99469,301356,393677
1629880722785,99466,301357,393677
1629880722795,99461,301357,393667
1629880722805,99462,301291,393589
1629880722815,99444,301336,393607
1629880722825,99448,301313,393592
1629880722835,99432,301281,393604
1629880722845,99438,301320,393561
1629880722855,99436,301303,393553
1629880722865,99444,301267,393562
1629880722875,99430,301250,393567
1629880722885,99434,301258,393559
1629880722895,99432,301258,393575
1629880722905,99421,301243,393559
1629880722915,99432,301268,393499
1629880722925,99422,301245,393574
1629880722935,99426,301266,393528
1629880722945,99428,301291,393563
1629880722955,99434,301289,393580
1629880722965,99421,301227,393531
1629880722975,99437,301311,393550
1629880722985,99440,301276,393554
1629880722995,99450,301263,393608
1629880723005,99438,301286,393568
1629880723015,99444,301316,393616
1629880723025,99451,301309,393635
1629880723035,99458,301317,393634
1629880723045,99457,301365,393617
1629880723055,99471,301352,393655
1629880723065,99479,301341,393674
1629880723075,99483,301348,393662
1629880723085,99506,301413,393675
1629880723095,99501,301371,393685
1629880723105,99524,301412,393731
1629880723115,99529,301426,393714
1629880723125,99538,301435,393712
1629880723135,99542,301436,393723
1629880723145,99555,301438,393715
1629880723155,99555,301455,393690
1629880723165,99562,301443,393661
1629880723175,99562,301485,393727
1629880723185,99577,301439,393743
1629880723195,99586,301457,393715
1629880723205,99587,301473,393712
1629880723215,99573,301464,393710
1629880723225,99592,301434,393650
1629880723235,99578,301404,393706
1629880723245,99595,301448,393702
1629880723255,99608,301399,393714
1629880723265,99604,301439,393688
1629880723275,99612,301391,393700
1629880723285,99618,301448,393673
1629880723295,99622,301438,393649
1629880723305,99628,301387,393645
1629880723315,99627,301409,393642
1629880723325,99629,301393,393660
1629880723335,99630,301387,393632
1629880723345,99628,301352,393634
1629880723355,99614,301332,393537
1629880723365,99612,301269,393592
1629880723375,99597,301279,393556
1629880723385,99610,301249,393584
1629880723395,99607,301258,393559
1629880723405,99588,301273,393559
1629880723415,99595,301250,393599
1629880723425,99582,301224,393577
1629880723435,99598,301248,393539
1629880723445,99586,301259,393607
1629880723455,99589,301252,393600
1629880723465,99594,301311,393640
1629880723475,99581,301301,393628
1629880723485,99579,301288,393650
1629880723495,99584,301314,393649
1629880723505,99590,301309,393663
1629880723515,99581,301306,393689
1629880723525,99590,301306,393644
1629880723535,99576,301312,393648
1629880723545,99574,301292,393658
1629880723555,99560,301306,393676
1629880723565,99553,301267,393654
1629880723575,99559,301333,393634
1629880723585,99550,301280,393628
1629880723595,99558,301287,393660
1629880723605,99546,301293,393690
1629880723615,99547,301284,393682
1629880723625,99544,301278,393673
1629880723635,99536,301279,393668
1629880723645,99540,301258,393610
1629880723655,99522,301252,393615
1629880723665,99518,301268,393593
1629880723675,99523,301225,393601
1629880723685,99522,301249,393598
1629880723695,99505,301229,393619
1629880723705,99519,301212,393567
1629880723715,99518,301228,393591
1629880723725,99513,301202,393541
1629880723735,99505,301191,393567
1629880723745,99501,301186,393563
1629880723755,99513,301213,393553
1629880723765,99507,301244,393559
1629880723775,99529,301200,393588
1629880723785,99521,301258,393578
1629880723795,99519,301247,393579
1629880723805,99532,301204,393582
1629880723815,99540,301256,393596
1629880723825,99548,301256,393641
1629880723835,99555,301301,393635
1629880723845,99548,301310,393609
1629880723855,99560,301300,393652
1629880723865,99569,301303,393597
1629880723875,99567,301287,393657
1629880723885,99582,301293,393633
1629880723895,99572,301322,393640
1629880723905,99582,301313,393650
1629880723915,99584,301373,393672
1629880723925,99597,301358,393668
1629880723935,99598,301338,393707
1629880723945,99608,301350,393684
1629880723955,99620,301367,393702
1629880723965,99625,301376,393709
1629880723975,99641,301357,393672
1629880723985,99644,301417,393683
1629880723995,99655,301404,393753
1629880724005,99678,301403,393716
1629880724015,99682,301416,393703
1629880724025,99695,301408,393740
1629880724035,99698,301463,393751
1629880724045,99720,301452,393738
1629880724055,99721,301459,393767
1629880724065,99723,301479,393764
1629880724075,99733,301480,393775
1629880724085,99743,301484,393787
1629880724095,99746,301464,393785
1629880724105,99749,301448,393784
1629880724115,99749,301428,393763
1629880724125,99776,301446,393724
1629880724135,99773,301452,393741
1629880724145,99780,301449,393746
1629880724155,99783,301453,393749
1629880724165,99800,301486,393749
1629880724175,99801,301421,393741
1629880724185,99784,301449,393729
1629880724195,99791,301382,393697
1629880724205,99774,301363,393685
1629880724215,99764,301347,393617
1629880724225,99768,301360,393630
1629880724235,99775,301329,393653
1629880724245,99762,301333,393654
1629880724255,99774,301285,393638
1629880724265,99769,301303,393659
1629880724275,99766,301287,393641
1629880724285,99765,301297,393613
1629880724295,99750,301281,393608
1629880724305,99748,301237,393604
1629880724315,99754,301179,393637
1629880724325,99766,301297,393665
1629880724335,99750,301276,393616
1629880724345,99763,301268,393631
1629880724355,99747,301279,393641
1629880724365,99744,301322,393636
1629880724375,99754,301306,393632
1629880724385,99741,301262,393617
1629880724395,99741,301250,393624
1629880724405,99741,301262,393636
1629880724415,99742,301279,393644
1629880724425,99747,301272,393635
1629880724435,99739,301258,393635
1629880724445,99744,301281,393643
1629880724455,99731,301285,393602
1629880724465,99741,301298,393643
1629880724475,99739,301268,393637
1629880724485,99737,301298,393644
1629880724495,99735,301253,393637
1629880724505,99745,301275,393602
1629880724515,99722,301289,393585
1629880724525,99737,301245,393586
1629880724535,99729,301232,393600
1629880724545,99715,301245,393598
1629880724555,99736,301262,393616
1629880724565,99726,301212,393554
1629880724575,99728,301219,393582
1629880724585,99719,301238,393584
1629880724595,99717,301211,393524
1629880724605,99710,301197,393525
1629880724615,99715,301214,393541
1629880724625,99714,301169,393542
1629880724635,99715,301169,393554
1629880724645,99719,301222,393556
1629880724655,99726,301182,393513
1629880724665,99722,301183,393534
1629880724675,99729,301236,393530
1629880724685,99733,301211,393497
1629880724695,99739,301170,393547
1629880724705,99740,301182,393532
1629880724715,99751,301225,393514
1629880724725,99757,301216,393549
1629880724735,99758,301210,393540
1629880724745,99762,301231,393549
1629880724755,99775,301259,393527
1629880724765,99788,301291,393546
1629880724775,99794,301280,393540
1629880724785,99786,301274,393542
1629880724795,99793,301270,393559
1629880724805,99801,301266,393563
1629880724815,99824,301277,393526
1629880724825,99833,301237,393582
1629880724835,99836,301280,393555
1629880724845,99839,301286,393560
1629880724855,99834,301264,393596
1629880724865,99854,301313,393617
1629880724875,99865,301323,393609
1629880724885,99867,301317,393611
1629880724895,99871,301310,393626
1629880724905,99893,301334,393618
1629880724915,99884,301365,393587
1629880724925,99899,301329,393635
1629880724935,99916,301336,393611
1629880724945,99918,301371,393638
1629880724955,99928,301354,393595
1629880724965,99941,301381,393675
1629880724975,99956,301412,393633
1629880724985,99954,301366,393643
1629880724995,99970,301374,393628
1629880725005,99973,301428,393616
1629880725015,99976,301371,393610
1629880725025,99987,301428,393676
1629880725035,99991,301434,393603
1629880725045,100009,301366,393641
1629880725055,100007,301402,393648
1629880725065,100023,301418,393628
1629880725075,100031,301439,393645
1629880725085,100044,301393,393667
1629880725095,100035,301404,393610
1629880725105,100043,301410,393635
1629880725115,100051,301352,393621
1629880725125,100044,301381,393654
1629880725135,100048,301333,393691
1629880725145,100053,301340,393681
1629880725155,100051,301356,393647
1629880725165,100057,301339,393650
1629880725175,100049,301344,393632
1629880725185,100067,301315,393612
1629880725195,100059,301280,393622
1629880725205,100064,301346,393654
1629880725215,100057,301366,393686
1629880725225,100065,301337,393665
1629880725235,100061,301342,393662
1629880725245,100076,301374,393660
1629880725255,100064,301359,393660
1629880725265,100071,301387,393664
1629880725275,100061,301330,393664
1629880725285,100077,301349,393635
1629880725295,100075,301352,393642
1629880725305,100065,301348,393645
1629880725315,100074,301340,393665
1629880725325,100067,301362,393676
1629880725335,100079,301370,393661
1629880725345,100066,301390,393710
1629880725355,100081,301368,393691
1629880725365,100088,301372,393709
1629880725375,100104,301408,393677
1629880725385,100104,301364,393654
1629880725395,100108,301393,393692
1629880725405,100112,301451,393710
1629880725415,100120,301414,393701
1629880725425,100127,301431,393689
1629880725435,100128,301469,393694
1629880725445,100139,301399,393720
1629880725455,100141,301405,393705
1629880725465,100149,301406,393743
1629880725475,100157,301345,393700
1629880725485,100162,301395,393677
1629880725495,100163,301427,393735
1629880725505,100186,301461,393740
1629880725515,100190,301422,393729
1629880725525,100186,301423,393736
1629880725535,100183,301466,393741
1629880725545,100184,301420,393736
1629880725555,100195,301452,393725
1629880725565,100183,301443,393714
1629880725575,100193,301439,393729
1629880725585,100193,301429,393715
1629880725595,100188,301450,393676
1629880725605,100192,301439,393695
1629880725615,100178,301420,393677
1629880725625,100178,301418,393673
1629880725635,100184,301449,393667
1629880725645,100184,301390,393658
1629880725655,100189,301434,393670
1629880725665,100184,301409,393676
1629880725675,100202,301387,393664
1629880725685,100198,301430,393641
1629880725695,100205,301408,393658
1629880725705,100214,301385,393661
1629880725715,100221,301405,393636
1629880725725,100231,301395,393660
1629880725735,100245,301408,393712
1629880725745,100255,301430,393655
1629880725755,100279,301477,393683
1629880725765,100279,301432,393707
1629880725775,100291,301490,393671
1629880725785,100305,301466,393674
1629880725795,100324,301506,393692
1629880725805,100334,301506,393722
1629880725815,100347,301500,393708
1629880725825,100366,301545,393773
1629880725835,100368,301513,393748
1629880725845,100384,301549,393749
1629880725855,100383,301548,393763
1629880725865,100411,301532,393741
1629880725875,100414,301575,393758
1629880725885,100420,301573,393772
1629880725895,100442,301573,393757
1629880725905,100443,301625,393766
1629880725915,100450,301580,393787
1629880725925,100444,301614,393777
1629880725935,100465,301537,393747
1629880725945,100446,301507,393733
1629880725955,100443,301575,393720
1629880725965,100437,301487,393734
1629880725975,100441,301501,393743
1629880725985,100437,301479,393729
1629880725995,100419,301439,393689
1629880726005,100426,301436,393678
1629880726015,100423,301459,393695
1629880726025,100423,301432,393671
1629880726035,100418,301417,393625
1629880726045,100411,301383,393629
1629880726055,100415,301363,393653
1629880726065,100419,301411,393635
1629880726075,100420,301394,393641
1629880726085,100434,301417,393636
1629880726095,100432,301399,393640
1629880726105,100435,301390,393606
1629880726115,100425,301367,393615
1629880726125,100445,301400,393616
1629880726135,100440,301392,393593
1629880726145,100437,301372,393618
1629880726155,100433,301399,393577
1629880726165,100439,301400,393554
1629880726175,100441,301401,393610
1629880726185,100454,301398,393607
1629880726195,100445,301446,393628
1629880726205,100470,301367,393635
1629880726215,100462,301395,393615
1629880726225,100451,301396,393621
1629880726235,100471,301432,393581
1629880726245,100458,301440,393626
1629880726255,100468,301438,393670
1629880726265,100476,301453,393672
1629880726275,100473,301393,393639
1629880726285,100484,301463,393645
1629880726295,100487,301425,393682
1629880726305,100488,301424,393674
1629880726315,100488,301448,393645
1629880726325,100487,301431,393651
1629880726335,100482,301419,393621
1629880726345,100484,301443,393609
1629880726355,100494,301449,393640
1629880726365,100486,301454,393623
1629880726375,100496,301465,393620
1629880726385,100498,301463,393610
1629880726395,100512,301486,393624
1629880726405,100509,301456,393572
1629880726415,100518,301385,393608
1629880726425,100525,301416,393577
1629880726435,100530,301435,393605
1629880726445,100512,301449,393607
1629880726455,100531,301465,393615
1629880726465,100537,301490,393609
1629880726475,100559,301468,393639
1629880726485,100556,301498,393558
1629880726495,100570,301484,393595
1629880726505,100562,301437,393609
1629880726515,100578,301416,393606
1629880726525,100576,301518,393637
1629880726535,100589,301469,393624
1629880726545,100588,301509,393593
1629880726555,100604,301511,393609
1629880726565,100604,301478,393597
1629880726575,100607,301463,393564
1629880726585,100613,301515,393638
1629880726595,100631,301493,393625
1629880726605,100631,301492,393685
1629880726615,100642,301553,393669
1629880726625,100646,301550,393649
1629880726635,100658,301525,393657
1629880726645,100653,301529,393643
1629880726655,100662,301530,393693
1629880726665,100683,301562,393659
1629880726675,100693,301596,393682
1629880726685,100690,301599,393675
1629880726695,100691,301606,393680
1629880726705,100712,301624,393738
1629880726715,100715,301612,393737
1629880726725,100728,301624,393748
1629880726735,100749,301672,393733
1629880726745,100745,301662,393732
1629880726755,100760,301612,393740
1629880726765,100759,301669,393707
1629880726775,100761,301626,393728
1629880726785,100762,301604,393672
1629880726795,100739,301570,393669
1629880726805,100755,301594,393705
1629880726815,100747,301548,393643
1629880726825,100743,301554,393687
1629880726835,100745,301511,393645
1629880726845,100729,301504,393666
1629880726855,100720,301505,393659
1629880726865,100746,301455,393603
1629880726875,100720,301485,393616
1629880726885,100729,301469,393625
1629880726895,100720,301492,393615
1629880726905,100719,301463,393578
1629880726915,100726,301463,393607
1629880726925,100726,301475,393574
1629880726935,100722,301461,393606
1629880726945,100730,301501,393632
1629880726955,100732,301421,393600
1629880726965,100716,301473,393542
1629880726975,100729,301410,393589
1629880726985,100726,301457,393566
1629880726995,100730,301465,393581
1629880727005,100728,301462,393583
1629880727015,100728,301465,393562
1629880727025,100751,301488,393606
1629880727035,100737,301487,393596
1629880727045,100745,301471,393578
1629880727055,100748,301442,393519
1629880727065,100731,301526,393608
1629880727075,100738,301507,393621
1629880727085,100756,301502,393628
1629880727095,100744,301506,393566
1629880727105,100746,301490,393604
1629880727115,100754,301547,393609
1629880727125,100755,301488,393540
1629880727135,100750,301447,393555
1629880727145,100730,301522,393594
1629880727155,100750,301512,393580
1629880727165,100755,301524,393558
1629880727175,100750,301490,393551
1629880727185,100749,301429,393522
1629880727195,100745,301516,393599
1629880727205,100757,301463,393578
1629880727215,100748,301497,393527
1629880727225,100759,301486,393546
1629880727235,100772,301484,393558
1629880727245,100758,301477,393538
1629880727255,100763,301543,393622
1629880727265,100783,301503,393561
1629880727275,100775,301490,393510
1629880727285,100798,301479,393515
1629880727295,100787,301498,393567
1629880727305,100788,301548,393580
1629880727315,100797,301527,393571
1629880727325,100805,301571,393562
1629880727335,100812,301492,393630
1629880727345,100818,301568,393592
1629880727355,100836,301557,393570
1629880727365,100820,301594,393580
1629880727375,100836,301544,393604
1629880727385,100845,301594,393626
1629880727395,100842,301568,393579
1629880727405,100854,301574,393632
1629880727415,100862,301619,393620
1629880727425,100859,301584,393563
1629880727435,100851,301608,393557
1629880727445,100875,301617,393628
1629880727455,100887,301606,393654
1629880727465,100883,301623,393660
1629880727475,100882,301651,393632
1629880727485,100896,301634,393624
1629880727495,100906,301661,393649
1629880727505,100909,301689,393682
1629880727515,100911,301702,393691
1629880727525,100929,301683,393668
1629880727535,100957,301736,393679
1629880727545,100957,301711,393708
1629880727555,100966,301703,393715
1629880727565,100959,301761,393673
1629880727575,100956,301712,393692
1629880727585,100978,301713,393681
1629880727595,100976,301669,393682
1629880727605,100982,301679,393690
1629880727615,100976,301680,393676
1629880727625,100979,301661,393673
1629880727635,100989,301614,393695
1629880727645,100996,301657,393683
1629880727655,100987,301674,393717
1629880727665,100990,301653,393635
1629880727675,100982,301661,393683
1629880727685,100985,301620,393664
1629880727695,100972,301652,393692
1629880727705,100994,301629,393685
1629880727715,100997,301653,393658
1629880727725,100989,301641,393689
1629880727735,100992,301666,393688
1629880727745,100999,301629,393678
1629880727755,101002,301662,393654
1629880727765,100996,301663,393680
1629880727775,100994,301642,393672
1629880727785,100991,301634,393689
1629880727795,100989,301612,393637
1629880727805,100993,301671,393662
1629880727815,100988,301692,393681
1629880727825,101000,301713,393718
1629880727835,101013,301726,393696
1629880727845,101005,301710,393704
1629880727855,101001,301677,393739
1629880727865,101003,301647,393675
1629880727875,100996,301707,393691
1629880727885,101009,301698,393666
1629880727895,101017,301705,393682
1629880727905,101023,301666,393719
1629880727915,101026,301693,393693
1629880727925,101023,301673,393697
1629880727935,101005,301684,393665
1629880727945,101016,301714,393666
1629880727955,101014,301661,393604
1629880727965,101015,301689,393621
1629880727975,101019,301685,393659
1629880727985,101023,301673,393656
1629880727995,101024,301666,393688
1629880728005,101028,301694,393689
1629880728015,101039,301696,393660
1629880728025,101030,301718,393667
1629880728035,101037,301666,393657
1629880728045,101050,301716,393654
1629880728055,101055,301737,393680
1629880728065,101048,301725,393637
1629880728075,101055,301734,393671
1629880728085,101051,301752,393688
1629880728095,101057,301740,393710
1629880728105,101077,301786,393689
1629880728115,101078,301758,393717
1629880728125,101078,301744,393667
1629880728135,101100,301754,393691
1629880728145,101083,301744,393704
1629880728155,101093,301787,393697
1629880728165,101100,301752,393693
1629880728175,101094,301766,393672
1629880728185,101097,301805,393655
1629880728195,101108,301776,393696
1629880728205,101116,301764,393692
1629880728215,101126,301780,393702
1629880728225,101142,301802,393659
1629880728235,101130,301818,393690
1629880728245,101132,301814,393680
1629880728255,101147,301804,393688
1629880728265,101140,301812,393667
1629880728275,101143,301834,393674
1629880728285,101150,301814,393723
1629880728295,101150,301803,393684
1629880728305,101171,301872,393685
1629880728315,101183,301885,393687
1629880728325,101175,301857,393715
1629880728335,101179,301858,393701
1629880728345,101190,301828,393721
1629880728355,101179,301874,393697
1629880728365,101186,301844,393695
1629880728375,101199,301813,393629
1629880728385,101195,301831,393666
1629880728395,101203,301826,393686
1629880728405,101188,301776,393628
1629880728415,101204,301763,393686
1629880728425,101186,301768,393663
1629880728435,101184,301715,393663
1629880728445,101176,301763,393632
1629880728455,101188,301739,393657
1629880728465,101184,301745,393658
1629880728475,101183,301768,393656
1629880728485,101204,301747,393688
1629880728495,101188,301779,393657
1629880728505,101197,301796,393664
1629880728515,101190,301771,393678
1629880728525,101194,301806,393686
1629880728535,101183,301801,393701
1629880728545,101177,301791,393659
1629880728555,101181,301803,393680
1629880728565,101185,301776,393702
1629880728575,101181,301773,393664
1629880728585,101175,301757,393724
1629880728595,101185,301819,393700
1629880728605,101178,301801,393681
1629880728615,101189,301792,393616
1629880728625,101207,301830,393718
1629880728635,101188,301828,393710
1629880728645,101192,301818,393713
1629880728655,101200,301791,393671
1629880728665,101185,301819,393714
1629880728675,101195,301841,393695
1629880728685,101204,301824,393727
1629880728695,101200,301844,393727
1629880728705,101207,301892,393699
1629880728715,101220,301853,393715
1629880728725,101197,301877,393714
1629880728735,101215,301830,393705
1629880728745,101201,301851,393693
1629880728755,101201,301849,393718
1629880728765,101205,301872,393723
1629880728775,101187,301846,393688
1629880728785,101213,301896,393753
1629880728795,101211,301849,393716
1629880728805,101193,301833,393701
1629880728815,101208,301910,393694
1629880728825,101227,301866,393739
1629880728835,101222,301873,393713
1629880728845,101220,301884,393718
1629880728855,101219,301861,393729
1629880728865,101218,301908,393714
1629880728875,101238,301898,393708
1629880728885,101223,301913,393722
1629880728895,101219,301906,393764
1629880728905,101241,301921,393735
1629880728915,101250,301958,393717
1629880728925,101253,301959,393710
1629880728935,101248,301951,393746
1629880728945,101268,301946,393727
1629880728955,101243,301980,393744
1629880728965,101272,301928,393751
1629880728975,101275,301948,393710
1629880728985,101276,301959,393714
1629880728995,101282,301950,393770
1629880729005,101290,301978,393750
1629880729015,101292,301968,393717
1629880729025,101292,301973,393722
1629880729035,101300,302015,393773
1629880729045,101305,301982,393777
1629880729055,101326,302010,393774
1629880729065,101334,302099,393809
1629880729075,101335,302069,393819
1629880729085,101333,302075,393784
1629880729095,101366,302029,393789
1629880729105,101351,302063,393826
1629880729115,101361,302080,393810
1629880729125,101364,302093,393803
1629880729135,101384,302130,393806
1629880729145,101387,302115,393806
1629880729155,101378,302145,393806
1629880729165,101382,302088,393785
1629880729175,101382,302048,393789
1629880729185,101377,302057,393804
1629880729195,101382,302058,393807
1629880729205,101379,302044,393817
1629880729215,101394,302041,393777
1629880729225,101384,302005,393784
1629880729235,101387,302052,393815
1629880729245,101379,302006,393804
1629880729255,101372,302027,393773
1629880729265,101376,302039,393779
1629880729275,101371,302026,393748
1629880729285,101374,302059,393808
1629880729295,101357,302031,393808
1629880729305,101372,302086,393807
1629880729315,101371,302045,393790
1629880729325,101368,302031,393803
1629880729335,101369,302039,393807
1629880729345,101347,302034,393770
1629880729355,101369,302050,393790
1629880729365,101371,302038,393864
1629880729375,101369,302053,393803
1629880729385,101375,302049,393802
1629880729395,101366,302059,393836
1629880729405,101368,302068,393825
1629880729415,101394,302078,393855
1629880729425,101385,302113,393868
1629880729435,101390,302130,393863
1629880729445,101382,302129,393846
1629880729455,101389,302162,393835
1629880729465,101381,302126,393843
1629880729475,101394,302145,393831
1629880729485,101378,302116,393819
1629880729495,101396,302141,393897
1629880729505,101395,302175,393878
1629880729515,101387,302141,393837
1629880729525,101385,302137,393879
1629880729535,101375,302117,393847
1629880729545,101387,302137,393895
1629880729555,101394,302173,393894
1629880729565,101394,302148,393856
1629880729575,101392,302142,393881
1629880729585,101403,302148,393871
1629880729595,101405,302189,393933
1629880729605,101397,302135,393899
1629880729615,101404,302243,393888
1629880729625,101399,302216,393920
1629880729635,101424,302249,393921
1629880729645,101428,302199,393872
1629880729655,101412,302231,393881
1629880729665,101419,302197,393897
1629880729675,101430,302191,393889
1629880729685,101405,302236,393869
1629880729695,101431,302232,393891
1629880729705,101436,302266,393926
1629880729715,101436,302233,393898
1629880729725,101436,302245,393918
1629880729735,101444,302282,393924
1629880729745,101431,302213,393891
1629880729755,101436,302276,393900
1629880729765,101446,302252,393932
1629880729775,101443,302244,393908
1629880729785,101459,302252,393925
1629880729795,101453,302231,393928
1629880729805,101458,302234,393896
1629880729815,101463,302286,393917
1629880729825,101474,302243,393939
1629880729835,101481,302260,393896
1629880729845,101474,302327,393895
1629880729855,101473,302283,393929
1629880729865,101490,302276,393957
1629880729875,101492,302321,393958
1629880729885,101500,302342,393985
1629880729895,101505,302346,393957
1629880729905,101514,302317,393978
1629880729915,101527,302336,393934
1629880729925,101521,302380,393970
1629880729935,101524,302345,393938
1629880729945,101515,302318,393936
1629880729955,101519,302321,393945
1629880729965,101526,302321,393936
1629880729975,101527,302334,393935
1629880729985,101533,302296,393959
1629880729995,101517,302315,393912
1629880730005,101506,302300,393897
1629880730015,101503,302293,393939
1629880730025,101502,302279,393890
1629880730035,101494,302258,393889
1629880730045,101494,302301,393930
1629880730055,101492,302309,393959
1629880730065,101480,302255,393909
1629880730075,101488,302296,393961
1629880730085,101480,302314,393938
1629880730095,101473,302311,393918
1629880730105,101467,302267,393883
1629880730115,101464,302258,393888
1629880730125,101461,302255,393902
1629880730135,101451,302292,393929
1629880730145,101443,302283,393905
1629880730155,101463,302280,393899
1629880730165,101447,302256,393898
1629880730175,101435,302299,393934
1629880730185,101456,302314,393928
1629880730195,101440,302291,393907
1629880730205,101440,302277,393904
1629880730215,101437,302247,393879
1629880730225,101441,302281,393904
1629880730235,101431,302300,393873
1629880730245,101429,302269,393877
1629880730255,101430,302309,393969
1629880730265,101444,302310,393956
1629880730275,101441,302295,393946
1629880730285,101429,302299,393951
1629880730295,101436,302301,393911
1629880730305,101432,302297,393973
1629880730315,101424,302305,393922
1629880730325,101421,302280,393943
1629880730335,101439,302320,393943
1629880730345,101439,302343,393962
1629880730355,101441,302384,393992
1629880730365,101456,302364,393981
1629880730375,101442,302353,393965
1629880730385,101446,302358,393959
1629880730395,101443,302360,393970
1629880730405,101445,302356,393947
1629880730415,101444,302395,393971
1629880730425,101445,302403,393932
1629880730435,101451,302396,393984
1629880730445,101452,302416,394010
1629880730455,101454,302407,394007
1629880730465,101457,302374,394010
1629880730475,101455,302403,393985
1629880730485,101456,302396,393965
1629880730495,101462,302428,394011
1629880730505,101462,302427,394017
1629880730515,101472,302430,394008
1629880730525,101469,302447,394030
1629880730535,101480,302509,394011
1629880730545,101478,302439,394009
1629880730555,101486,302477,394010
1629880730565,101488,302472,394023
1629880730575,101481,302476,394017
1629880730585,101494,302492,394027
1629880730595,101493,302476,394042
1629880730605,101507,302489,394006
1629880730615,101499,302446,394014
1629880730625,101508,302498,394054
1629880730635,101513,302519,394066
1629880730645,101529,302537,394078
1629880730655,101521,302515,394082
1629880730665,101535,302519,394087
1629880730675,101521,302485,394026
1629880730685,101523,302503,394057
1629880730695,101528,302503,394030
1629880730705,101516,302495,394035
1629880730715,101513,302478,394027
1629880730725,101519,302488,394023
1629880730735,101538,302448,394030
1629880730745,101522,302456,394012
1629880730755,101520,302475,394011
1629880730765,101503,302451,394026
1629880730775,101502,302425,394027
1629880730785,101495,302427,394020
1629880730795,101494,302404,394027
1629880730805,101486,302433,393938
1629880730815,101480,302442,393994
1629880730825,101488,302436,394029
1629880730835,101483,302471,394010
1629880730845,101468,302439,394018
1629880730855,101454,302429,393994
1629880730865,101469,302421,393985
1629880730875,101461,302433,393984
1629880730885,101448,302419,393986
1629880730895,101450,302404,393993
1629880730905,101436,302414,394017
1629880730915,101434,302413,393977
1629880730925,101437,302411,393986
1629880730935,101443,302451,393988
1629880730945,101429,302479,394025
1629880730955,101426,302430,394010
1629880730965,101437,302467,394016
1629880730975,101429,302474,394008
1629880730985,101423,302445,393981
1629880730995,101398,302468,394019
1629880731005,101407,302413,394017
1629880731015,101414,302492,393982
1629880731025,101408,302457,393991
1629880731035,101404,302451,394007
1629880731045,101395,302490,394028
1629880731055,101399,302457,394003
1629880731065,101388,302458,394018
1629880731075,101391,302450,393979
1629880731085,101385,302443,394004
1629880731095,101390,302432,393976
1629880731105,101381,302433,394000
1629880731115,101373,302487,393980
1629880731125,101389,302410,393982
1629880731135,101373,302491,393957
1629880731145,101365,302433,393960
1629880731155,101371,302445,393989
1629880731165,101392,302472,393949
1629880731175,101366,302461,394009
1629880731185,101375,302442,393999
1629880731195,101363,302468,393974
1629880731205,101368,302416,394029
1629880731215,101380,302529,394030
1629880731225,101378,302474,393964
1629880731235,101367,302476,394013
1629880731245,101386,302536,393964
1629880731255,101387,302504,393975
1629880731265,101378,302528,394003
1629880731275,101378,302493,394015
1629880731285,101386,302503,394026
1629880731295,101381,302545,394036
1629880731305,101389,302531,394045
1629880731315,101399,302529,394021
1629880731325,101395,302578,394077
1629880731335,101393,302571,394032
1629880731345,101407,302542,394043
1629880731355,101401,302630,394022
1629880731365,101409,302589,394027
1629880731375,101424,302592,394052
1629880731385,101418,302543,394044
1629880731395,101429,302554,394077
1629880731405,101424,302622,394099
1629880731415,101446,302641,394070
1629880731425,101438,302639,394115
1629880731435,101434,302615,394132
1629880731445,101437,302630,394071
1629880731455,101434,302614,394058
1629880731465,101440,302579,394073
1629880731475,101443,302593,394000
1629880731485,101434,302560,394077
1629880731495,101432,302556,394062
1629880731505,101419,302552,394050
1629880731515,101427,302541,394018
1629880731525,101408,302509,394044
1629880731535,101399,302487,394001
1629880731545,101399,302537,394015
1629880731555,101386,302531,394034
1629880731565,101380,302524,394005
1629880731575,101376,302517,393998
1629880731585,101367,302499,394024
1629880731595,101369,302477,394029
1629880731605,101349,302518,394020
1629880731615,101358,302512,394032
1629880731625,101344,302529,394033
1629880731635,101324,302467,394016
1629880731645,101322,302507,394006
1629880731655,101305,302451,393988
1629880731665,101310,302474,394005
1629880731675,101280,302514,393985
1629880731685,101291,302480,393997
1629880731695,101271,302487,393944
1629880731705,101282,302476,393976
1629880731715,101272,302493,394019
1629880731725,101272,302504,394073
1629880731735,101270,302512,393994
1629880731745,101257,302514,394030
1629880731755,101248,302547,393987
1629880731765,101250,302506,394011
1629880731775,101213,302484,394010
1629880731785,101235,302506,394016
1629880731795,101242,302483,393999
1629880731805,101235,302509,393993
1629880731815,101222,302531,394025
1629880731825,101229,302523,393989
1629880731835,101212,302498,394011
1629880731845,101200,302494,394016
1629880731855,101205,302509,394016
1629880731865,101201,302483,393996
1629880731875,101198,302500,393996
1629880731885,101193,302468,394010
1629880731895,101198,302463,393980
1629880731905,101194,302546,394043
1629880731915,101194,302561,394017
1629880731925,101182,302520,394006
1629880731935,101183,302555,394020
1629880731945,101182,302575,394025
1629880731955,101176,302531,393980
1629880731965,101174,302529,394023
1629880731975,101163,302515,394019
1629880731985,101170,302539,394018
1629880731995,101176,302546,394035
1629880732005,101181,302569,393991
1629880732015,101178,302547,394014
1629880732025,101180,302525,394015
1629880732035,101186,302614,394045
1629880732045,101176,302542,393999
1629880732055,101170,302559,394039
1629880732065,101170,302567,394018
1629880732075,101181,302578,394046
1629880732085,101177,302556,393989
1629880732095,101184,302520,394008
1629880732105,101200,302641,394007
1629880732115,101180,302576,394046
1629880732125,101177,302569,394053
1629880732135,101195,302589,394049
1629880732145,101185,302612,394042
1629880732155,101195,302609,394068
1629880732165,101198,302585,394031
1629880732175,101207,302638,394079
1629880732185,101205,302576,394049
1629880732195,101201,302591,394066
1629880732205,101211,302622,394041
1629880732215,101199,302587,394047
1629880732225,101208,302653,394029
1629880732235,101226,302646,394079
1629880732245,101242,302670,394061
1629880732255,101234,302669,394052
1629880732265,101243,302703,394048
1629880732275,101232,302687,394090
1629880732285,101235,302629,394085
1629880732295,101227,302607,394041
1629880732305,101216,302602,394034
1629880732315,101235,302609,394021
1629880732325,101218,302581,394053
1629880732335,101204,302560,394043
1629880732345,101213,302564,394018
1629880732355,101203,302584,394051
1629880732365,101184,302541,394024
1629880732375,101185,302549,393991
1629880732385,101166,302523,393994
1629880732395,101166,302523,393979
1629880732405,101156,302504,393992
1629880732415,101141,302528,394016
1629880732425,101129,302509,393994
1629880732435,101130,302566,394056
1629880732445,101112,302502,393993
1629880732455,101109,302498,393976
1629880732465,101082,302468,393953
1629880732475,101079,302457,393994
1629880732485,101048,302462,393991
1629880732495,101035,302448,393974
1629880732505,101027,302462,393950
1629880732515,101007,302460,393987
1629880732525,101000,302403,393943
1629880732535,100994,302424,393975
1629880732545,100979,302415,393949
1629880732555,100978,302486,393960
1629880732565,100963,302441,393952
1629880732575,100954,302467,393918
1629880732585,100950,302419,393969
1629880732595,100935,302480,393968
1629880732605,100934,302462,393944
1629880732615,100922,302486,393927
1629880732625,100929,302446,393991
1629880732635,100931,302459,393963
1629880732645,100912,302405,393961
1629880732655,100905,302458,393947
1629880732665,100903,302432,393960
1629880732675,100885,302427,393941
1629880732685,100892,302409,393943
1629880732695,100893,302430,393987
1629880732705,100889,302441,393911
1629880732715,100872,302461,393921
1629880732725,100879,302450,393946
1629880732735,100868,302453,393937
1629880732745,100867,302449,393932
1629880732755,100851,302483,393955
1629880732765,100847,302457,393962
1629880732775,100856,302438,393962
1629880732785,100863,302475,393955
1629880732795,100861,302482,393962
1629880732805,100839,302488,393951
1629880732815,100853,302471,393982
1629880732825,100846,302475,393992
1629880732835,100843,302486,393933
1629880732845,100844,302476,393966
1629880732855,100845,302512,393947
1629880732865,100844,302478,393967
1629880732875,100837,302462,393938
1629880732885,100833,302467,393960
1629880732895,100836,302499,393965
1629880732905,100840,302490,393957
1629880732915,100840,302457,393957
1629880732925,100843,302458,393948
1629880732935,100831,302515,393971
1629880732945,100833,302488,393924
1629880732955,100846,302520,393947
1629880732965,100832,302520,393943
1629880732975,100847,302524,393950
1629880732985,100850,302537,394004
1629880732995,100856,302544,394000
1629880733005,100857,302533,393959
1629880733015,100862,302555,393974
1629880733025,100863,302551,393973
1629880733035,100867,302511,393980
1629880733045,100852,302516,393984
1629880733055,100869,302527,393956
1629880733065,100867,302554,394024
1629880733075,100871,302537,394008
1629880733085,100874,302547,394000
1629880733095,100869,302593,393945
1629880733105,100868,302531,394012
1629880733115,100875,302594,393954
1629880733125,100875,302519,393998
1629880733135,100896,302557,394050
1629880733145,100880,302526,394002
1629880733155,100904,302585,394026
1629880733165,100889,302582,394031
1629880733175,100906,302571,394035
1629880733185,100899,302580,394026
1629880733195,100907,302603,394008
1629880733205,100911,302571,393982
1629880733215,100914,302635,394051
1629880733225,100923,302592,394066
1629880733235,100915,302619,394067
1629880733245,100931,302589,394017
1629880733255,100934,302640,394040
1629880733265,100948,302618,394034
1629880733275,100940,302656,394025
1629880733285,100931,302627,394054
1629880733295,100963,302648,394025
1629880733305,100962,302660,394062
1629880733315,100962,302643,394053
1629880733325,100973,302669,394048
1629880733335,100974,302630,394037
1629880733345,100981,302697,394044
1629880733355,100990,302705,394035
1629880733365,100995,302667,394011
1629880733375,101001,302678,394050
1629880733385,100992,302685,394056
1629880733395,101000,302689,394063
1629880733405,101009,302701,394044
1629880733415,101023,302660,394090
1629880733425,101022,302652,394017
1629880733435,101040,302740,394002
1629880733445,101037,302683,394020
1629880733455,101052,302731,394059
1629880733465,101041,302716,394026
1629880733475,101040,302720,394024
1629880733485,101042,302746,394033
1629880733495,101049,302679,394058
1629880733505,101056,302730,394060
1629880733515,101074,302702,394043
1629880733525,101064,302723,394063
1629880733535,101088,302720,394079
1629880733545,101088,302791,394069
1629880733555,101087,302787,394068
1629880733565,101108,302726,394040
1629880733575,101110,302713,394032
1629880733585,101107,302693,394046
1629880733595,101089,302679,393986
1629880733605,101087,302672,393997
1629880733615,101076,302640,394034
1629880733625,101091,302692,394065
1629880733635,101101,302666,394039
1629880733645,101086,302638,394017
1629880733655,101080,302637,394006
1629880733665,101077,302604,394003
1629880733675,101074,302633,394025
1629880733685,101063,302619,393990
1629880733695,101049,302636,394028
1629880733705,101050,302644,393998
1629880733715,101046,302609,393969
1629880733725,101017,302594,393989
1629880733735,101024,302604,393990
1629880733745,101006,302591,393985
1629880733755,100992,302610,393964
1629880733765,100972,302577,393994
1629880733775,100971,302488,393979
1629880733785,100956,302558,393950
1629880733795,100941,302550,393962
1629880733805,100945,302513,393967
1629880733815,100911,302527,393911
1629880733825,100916,302530,393944
1629880733835,100889,302541,393961
1629880733845,100891,302553,393965
1629880733855,100896,302542,393906
1629880733865,100886,302546,393965
1629880733875,100881,302522,393967
1629880733885,100892,302499,393929
1629880733895,100877,302498,393909
1629880733905,100875,302516,393938
1629880733915,100872,302535,393933
1629880733925,100872,302570,393960
1629880733935,100839,302574,393899
1629880733945,100849,302548,393907
1629880733955,100844,302514,393950
1629880733965,100829,302529,393935
1629880733975,100829,302522,393898
1629880733985,100818,302517,393920
1629880733995,100808,302529,393957
1629880734005,100814,302517,393913
1629880734015,100796,302521,393906
1629880734025,100801,302540,393908
1629880734035,100791,302495,393927
1629880734045,100780,302522,393929
1629880734055,100799,302517,393896
1629880734065,100801,302449,393947
1629880734075,100774,302515,393966
1629880734085,100777,302549,393948
1629880734095,100772,302501,393941
1629880734105,100787,302541,393893
1629880734115,100754,302535,393905
1629880734125,100778,302498,393962
1629880734135,100771,302545,393940
1629880734145,100761,302555,393953
1629880734155,100770,302519,393896
1629880734165,100774,302565,393939
1629880734175,100761,302534,393892
1629880734185,100773,302541,393909
1629880734195,100775,302506,393933
1629880734205,100778,302516,393916
1629880734215,100774,302546,393955
1629880734225,100789,302547,393961
1629880734235,100773,302569,393937
1629880734245,100789,302566,393974
1629880734255,100781,302572,393933
1629880734265,100789,302530,393928
1629880734275,100783,302556,393937
1629880734285,100772,302571,393914
1629880734295,100793,302545,393902
1629880734305,100799,302556,393920
1629880734315,100789,302592,393928
1629880734325,100791,302558,393929
1629880734335,100816,302563,393951
1629880734345,100802,302563,393920
1629880734355,100801,302554,393924
1629880734365,100811,302573,393942
1629880734375,100802,302588,393909
1629880734385,100820,302564,393950
1629880734395,100810,302562,393875
1629880734405,100806,302596,393948
1629880734415,100820,302627,393964
1629880734425,100816,302574,393902
1629880734435,100815,302585,393927
1629880734445,100830,302563,393924
1629880734455,100827,302584,393913
1629880734465,100825,302618,393950
1629880734475,100834,302559,393880
1629880734485,100841,302614,393904
1629880734495,100848,302603,393919
1629880734505,100851,302600,393887
1629880734515,100861,302608,393952
1629880734525,100858,302623,393967
1629880734535,100871,302671,393951
1629880734545,100879,302656,393934
1629880734555,100889,302627,393950
1629880734565,100877,302652,393932
1629880734575,100891,302664,393968
1629880734585,100890,302692,393989
1629880734595,100899,302645,393950
1629880734605,100910,302708,393951
1629880734615,100922,302655,393973
1629880734625,100923,302700,393959
1629880734635,100915,302696,393956
1629880734645,100933,302706,393943
1629880734655,100926,302694,393980
1629880734665,100945,302702,393958
1629880734675,100944,302733,393969
1629880734685,100930,302658,393966
1629880734695,100968,302695,393986
1629880734705,100957,302728,393956
1629880734715,100974,302718,393982
1629880734725,100974,302714,393950
1629880734735,100976,302731,394008
1629880734745,100972,302683,393989
1629880734755,100978,302715,393960
1629880734765,100987,302684,393997
1629880734775,100998,302736,393976
1629880734785,100987,302706,393985
1629880734795,100995,302644,393975
1629880734805,100991,302660,393937
1629880734815,100993,302652,393978
1629880734825,100984,302672,393943
1629880734835,100985,302640,393931
1629880734845,100999,302650,393968
1629880734855,100992,302597,393971
1629880734865,100988,302642,393962
1629880734875,100970,302606,393971
1629880734885,100958,302636,393927
1629880734895,100965,302575,393929
1629880734905,100943,302609,393948
1629880734915,100938,302589,393921
1629880734925,100942,302605,393940
1629880734935,100929,302596,393919
1629880734945,100912,302549,393915
1629880734955,100906,302567,393960
1629880734965,100902,302548,393915
1629880734975,100892,302579,393918
1629880734985,100894,302543,393871
1629880734995,100870,302579,393824
1629880735005,100876,302489,393890
1629880735015,100861,302534,393925
1629880735025,100852,302499,393861
1629880735035,100852,302522,393834
1629880735045,100841,302521,393871
1629880735055,100837,302564,393890
1629880735065,100828,302521,393901
1629880735075,100844,302567,393873
1629880735085,100826,302550,393921
1629880735095,100821,302556,393880
1629880735105,100811,302587,393884
1629880735115,100820,302531,393902
1629880735125,100812,302581,393886
1629880735135,100819,302534,393863
1629880735145,100799,302552,393891
1629880735155,100795,302520,393885
1629880735165,100797,302477,393884
1629880735175,100782,302548,393837
1629880735185,100784,302522,393848
1629880735195,100764,302497,393831
1629880735205,100763,302478,393837
1629880735215,100762,302525,393827
1629880735225,100760,302539,393925
1629880735235,100759,302537,393845
1629880735245,100761,302504,393844
1629880735255,100756,302505,393848
1629880735265,100756,302503,393874
1629880735275,100765,302500,393876
1629880735285,100749,302536,393903
1629880735295,100760,302550,393875
1629880735305,100773,302542,393854
1629880735315,100765,302547,393900
1629880735325,100773,302545,393867
1629880735335,100769,302526,393872
1629880735345,100752,302583,393866
1629880735355,100784,302568,393860
1629880735365,100776,302519,393872
1629880735375,100762,302582,393857
1629880735385,100764,302573,393863
1629880735395,100774,302578,393872
1629880735405,100768,302571,393878
1629880735415,100772,302596,393841
1629880735425,100771,302549,393857
1629880735435,100777,302525,393836
1629880735445,100786,302588,393868
1629880735455,100782,302584,393879
1629880735465,100774,302568,393851
1629880735475,100776,302587,393846
1629880735485,100775,302634,393855
1629880735495,100784,302548,393917
1629880735505,100791,302592,393887
1629880735515,100789,302631,393837
1629880735525,100794,302552,393897
1629880735535,100808,302610,393875
1629880735545,100802,302608,393883
1629880735555,100813,302584,393877
1629880735565,100806,302580,393866
1629880735575,100819,302600,393849
1629880735585,100818,302597,393875
1629880735595,100818,302590,393880
1629880735605,100831,302593,393830
1629880735615,100824,302585,393874
1629880735625,100842,302625,393932
1629880735635,100833,302625,393902
1629880735645,100841,302631,393871
1629880735655,100826,302603,393872
1629880735665,100847,302657,393875
1629880735675,100848,302624,393895
1629880735685,100864,302675,393868
1629880735695,100861,302693,393885
1629880735705,100859,302644,393913
1629880735715,100873,302683,393853
1629880735725,100893,302668,393901
1629880735735,100892,302690,393934
1629880735745,100894,302680,393934
1629880735755,100895,302629,393921
1629880735765,100905,302705,393904
1629880735775,100925,302666,393914
1629880735785,100919,302710,393923
1629880735795,100933,302734,393945
1629880735805,100935,302744,393987
1629880735815,100943,302719,393979
1629880735825,100962,302712,393977
1629880735835,100968,302766,393957
1629880735845,100956,302749,393933
1629880735855,100961,302765,393999
1629880735865,100972,302724,393908
1629880735875,100965,302703,393917
1629880735885,100970,302724,393886
1629880735895,100978,302690,393918
1629880735905,100972,302671,393925
1629880735915,100958,302645,393898
1629880735925,100955,302613,393918
1629880735935,100944,302640,393857
1629880735945,100944,302633,393879
1629880735955,100936,302620,393869
1629880735965,100919,302624,393890
1629880735975,100917,302627,393859
1629880735985,100919,302608,393870
1629880735995,100919,302605,393877
1629880736005,100915,302582,393908
1629880736015,100916,302585,393851
1629880736025,100902,302585,393866
1629880736035,100888,302563,393886
1629880736045,100878,302589,393847
1629880736055,100884,302538,393871
1629880736065,100869,302548,393824
1629880736075,100855,302546,393869
1629880736085,100847,302555,393848
1629880736095,100853,302545,393842
1629880736105,100838,302553,393896
1629880736115,100833,302519,393840
1629880736125,100830,302529,393868
1629880736135,100828,302556,393845
1629880736145,100838,302546,393845
1629880736155,100827,302541,393843
1629880736165,100824,302542,393836
1629880736175,100810,302543,393854
1629880736185,100823,302557,393828
1629880736195,100795,302544,393829
1629880736205,100790,302539,393845
1629880736215,100799,302549,393833
1629880736225,100798,302519,393851
1629880736235,100779,302548,393820
1629880736245,100775,302519,393822
1629880736255,100769,302490,393855
1629880736265,100755,302528,393825
1629880736275,100748,302499,393757
1629880736285,100747,302483,393787
1629880736295,100746,302497,393830
1629880736305,100746,302526,393815
1629880736315,100759,302482,393812
1629880736325,100748,302522,393782
1629880736335,100753,302493,393822
1629880736345,100740,302544,393812
1629880736355,100744,302525,393816
1629880736365,100740,302547,393794
1629880736375,100746,302517,393808
1629880736385,100745,302508,393852
1629880736395,100755,302564,393818
1629880736405,100751,302518,393820
1629880736415,100745,302549,393825
1629880736425,100748,302518,393787
1629880736435,100750,302580,393860
1629880736445,100758,302557,393827
1629880736455,100748,302566,393811
1629880736465,100747,302564,393821
1629880736475,100749,302558,393839
1629880736485,100747,302560,393797
1629880736495,100776,302561,393866
1629880736505,100776,302570,393805
1629880736515,100777,302566,393815
1629880736525,100768,302588,393869
1629880736535,100781,302554,393864
1629880736545,100764,302583,393878
1629880736555,100769,302572,393866
1629880736565,100771,302606,393840
1629880736575,100770,302580,393844
1629880736585,100777,302635,393841
1629880736595,100776,302600,393879
1629880736605,100777,302583,393842
1629880736615,100780,302592,393801
1629880736625,100780,302612,393842
1629880736635,100800,302570,393818
1629880736645,100811,302604,393818
1629880736655,100790,302648,393802
1629880736665,100812,302596,393887
1629880736675,100800,302609,393830
1629880736685,100801,302593,393810
1629880736695,100821,302641,393858
1629880736705,100804,302662,393845
1629880736715,100828,302615,393880
1629880736725,100832,302631,393830
1629880736735,100843,302673,393876
1629880736745,100831,302660,393835
1629880736755,100841,302627,393861
1629880736765,100845,302676,393857
1629880736775,100858,302649,393813
1629880736785,100853,302673,393876
1629880736795,100868,302682,393877
1629880736805,100872,302688,393903
1629880736815,100866,302693,393905
1629880736825,100879,302714,393896
1629880736835,100883,302714,393857
1629880736845,100895,302729,393906
1629880736855,100904,302699,393851
1629880736865,100897,302724,393868
1629880736875,100889,302662,393853
1629880736885,100909,302667,393878
1629880736895,100890,302617,393833
1629880736905,100891,302674,393857
1629880736915,100897,302651,393852
1629880736925,100891,302606,393866
1629880736935,100874,302609,393841
1629880736945,100873,302584,393825
1629880736955,100874,302599,393809
1629880736965,100860,302607,393815
1629880736975,100870,302582,393820
1629880736985,100853,302551,393819
1629880736995,100844,302614,393781
1629880737005,100834,302594,393806
1629880737015,100828,302570,393784
1629880737025,100825,302529,393808
1629880737035,100810,302532,393794
1629880737045,100814,302535,393773
1629880737055,100780,302516,393769
1629880737065,100784,302500,393805
1629880737075,100784,302505,393797
1629880737085,100768,302530,393771
1629880737095,100773,302511,393776
1629880737105,100771,302561,393779
1629880737115,100762,302551,393795
1629880737125,100755,302528,393758
1629880737135,100748,302507,393811
1629880737145,100766,302533,393804
1629880737155,100768,302510,393814
1629880737165,100750,302544,393777
1629880737175,100736,302535,393739
1629880737185,100738,302533,393765
1629880737195,100724,302531,393795
1629880737205,100731,302489,393764
1629880737215,100727,302523,393801
1629880737225,100729,302521,393756
1629880737235,100719,302531,393752
1629880737245,100712,302495,393782
1629880737255,100701,302498,393753
1629880737265,100703,302510,393720
1629880737275,100698,302453,393766
1629880737285,100689,302519,393721
1629880737295,100699,302495,393791
1629880737305,100685,302481,393734
1629880737315,100671,302492,393782
1629880737325,100686,302491,393745
1629880737335,100690,302505,393763
1629880737345,100692,302515,393776
1629880737355,100693,302531,393782
1629880737365,100695,302557,393768
1629880737375,100696,302532,393797
1629880737385,100693,302480,393771
1629880737395,100694,302508,393776
1629880737405,100689,302503,393787
1629880737415,100697,302521,393756
1629880737425,100694,302521,393800
1629880737435,100722,302487,393729
1629880737445,100698,302483,393786
1629880737455,100691,302518,393775
1629880737465,100704,302529,393807
1629880737475,100710,302535,393773
1629880737485,100720,302545,393757
1629880737495,100705,302575,393792
1629880737505,100712,302545,393740
1629880737515,100716,302589,393793
1629880737525,100723,302568,393771
1629880737535,100721,302560,393792
1629880737545,100731,302573,393794
1629880737555,100721,302570,393814
1629880737565,100731,302567,393831
1629880737575,100736,302580,393797
1629880737585,100742,302589,393790
1629880737595,100735,302587,393807
1629880737605,100730,302603,393790
1629880737615,100747,302568,393809
1629880737625,100744,302592,393741
1629880737635,100761,302567,393783
1629880737645,100746,302582,393776
1629880737655,100762,302563,393802
1629880737665,100762,302617,393758
1629880737675,100767,302603,393797
1629880737685,100772,302636,393805
1629880737695,100774,302621,393835
1629880737705,100775,302619,393784
1629880737715,100783,302654,393839
1629880737725,100787,302607,393793
1629880737735,100793,302601,393816
1629880737745,100792,302630,393805
1629880737755,100806,302642,393809
1629880737765,100809,302629,393844
1629880737775,100806,302584,393826
1629880737785,100821,302665,393842
1629880737795,100822,302672,393823
1629880737805,100823,302607,393823
1629880737815,100829,302611,393769
1629880737825,100815,302572,393788
1629880737835,100812,302610,393759
1629880737845,100821,302624,393793
1629880737855,100815,302588,393792
1629880737865,100819,302559,393843
1629880737875,100814,302616,393827
1629880737885,100817,302560,393764
1629880737895,100803,302562,393757
1629880737905,100796,302568,393810
1629880737915,100794,302530,393801
1629880737925,100788,302532,393781
1629880737935,100783,302533,393795
1629880737945,100786,302511,393789
1629880737955,100784,302565,393824
1629880737965,100772,302557,393785
1629880737975,100752,302556,393779
1629880737985,100762,302544,393776
1629880737995,100763,302512,393803
1629880738005,100747,302526,393787
1629880738015,100740,302503,393733
1629880738025,100736,302528,393805
1629880738035,100736,302506,393815
1629880738045,100734,302527,393805
1629880738055,100718,302538,393780
1629880738065,100722,302547,393842
1629880738075,100733,302565,393817
1629880738085,100719,302538,393819
1629880738095,100711,302566,393819
1629880738105,100712,302592,393816
1629880738115,100709,302541,393794
1629880738125,100707,302534,393758
1629880738135,100701,302504,393784
1629880738145,100707,302542,393800
1629880738155,100698,302514,393771
1629880738165,100696,302524,393819
1629880738175,100697,302538,393793
1629880738185,100704,302569,393795
1629880738195,100699,302528,393829
1629880738205,100691,302509,393839
1629880738215,100688,302549,393797
1629880738225,100677,302569,393839
1629880738235,100694,302592,393800
1629880738245,100683,302556,393829
1629880738255,100688,302552,393793
1629880738265,100671,302578,393800
1629880738275,100688,302542,393791
1629880738285,100684,302585,393850
1629880738295,100672,302545,393821
1629880738305,100677,302590,393812
1629880738315,100683,302580,393804
1629880738325,100679,302582,393812
1629880738335,100682,302553,393844
1629880738345,100676,302620,393836
1629880738355,100674,302622,393857
1629880738365,100676,302567,393859
1629880738375,100677,302620,393845
1629880738385,100681,302577,393902
1629880738395,100692,302601,393836
1629880738405,100689,302621,393860
1629880738415,100689,302589,393856
1629880738425,100688,302608,393843
1629880738435,100686,302609,393862
1629880738445,100696,302663,393853
1629880738455,100710,302642,393884
1629880738465,100709,302583,393867
1629880738475,100706,302645,393901
1629880738485,100723,302623,393889
1629880738495,100723,302646,393870
1629880738505,100728,302692,393898
1629880738515,100733,302669,393906
1629880738525,100741,302687,393921
1629880738535,100745,302707,393921
1629880738545,100740,302709,393911
1629880738555,100752,302695,393931
1629880738565,100742,302637,393925
1629880738575,100762,302694,393897
1629880738585,100757,302741,393939
1629880738595,100773,302734,393938
1629880738605,100769,302727,393993
1629880738615,100773,302714,393948
1629880738625,100774,302710,393894
1629880738635,100781,302695,393944
1629880738645,100779,302730,393926
1629880738655,100785,302768,393947
1629880738665,100780,302751,393929
1629880738675,100784,302752,393934
1629880738685,100782,302721,393939
1629880738695,100791,302707,393942
1629880738705,100777,302661,393948
1629880738715,100768,302652,393939
1629880738725,100779,302677,393926
1629880738735,100770,302641,393919
1629880738745,100751,302658,393923
1629880738755,100759,302602,393883
1629880738765,100740,302638,393902
1629880738775,100748,302651,393900
1629880738785,100735,302660,393912
1629880738795,100737,302614,393942
1629880738805,100725,302662,393950
1629880738815,100719,302637,393918
1629880738825,100719,302671,393894
1629880738835,100720,302613,393925
1629880738845,100703,302607,393910
1629880738855,100712,302609,393879
1629880738865,100700,302635,393859
1629880738875,100689,302607,393882
1629880738885,100688,302623,393931
1629880738895,100675,302612,393930
1629880738905,100667,302609,393881
1629880738915,100669,302616,393890
1629880738925,100662,302693,393896
1629880738935,100667,302617,393883
1629880738945,100669,302609,393881
1629880738955,100655,302591,393884
1629880738965,100653,302618,393908
1629880738975,100639,302631,393921
1629880738985,100631,302607,393917
1629880738995,100645,302651,393934
1629880739005,100649,302626,393917
1629880739015,100627,302609,393904
1629880739025,100637,302593,393892
1629880739035,100624,302614,393892
1629880739045,100612,302568,393920
1629880739055,100625,302573,393888
1629880739065,100617,302605,393904
1629880739075,100611,302601,393924
1629880739085,100622,302622,393956
1629880739095,100625,302612,393893
1629880739105,100616,302594,393884
1629880739115,100618,302620,393926
1629880739125,100625,302657,393931
1629880739135,100620,302610,393965
1629880739145,100622,302633,393896
1629880739155,100620,302640,393893
1629880739165,100610,302635,393939
1629880739175,100621,302619,393905
1629880739185,100620,302658,393925
1629880739195,100610,302689,393921
1629880739205,100614,302653,393952
1629880739215,100602,302642,393955
1629880739225,100606,302650,393909
1629880739235,100622,302614,393949
1629880739245,100628,302661,393908
1629880739255,100606,302664,393930
1629880739265,100631,302657,393915
1629880739275,100631,302659,393936
1629880739285,100629,302679,393940
1629880739295,100632,302693,393923
1629880739305,100631,302711,393927
1629880739315,100637,302690,393902
1629880739325,100647,302706,393933
1629880739335,100637,302701,393971
1629880739345,100646,302711,393993
1629880739355,100656,302674,393967
1629880739365,100655,302684,393953
1629880739375,100653,302687,393916
1629880739385,100648,302703,393971
1629880739395,100661,302689,394012
1629880739405,100660,302704,393985
1629880739415,100674,302721,394002
1629880739425,100660,302721,393984
1629880739435,100666,302765,393983
1629880739445,100675,302729,393950
1629880739455,100681,302745,393988
1629880739465,100676,302747,393951
1629880739475,100684,302699,393974
1629880739485,100675,302698,393976
1629880739495,100672,302700,393966
1629880739505,100679,302722,393932
1629880739515,100672,302717,393941
1629880739525,100666,302706,393989
1629880739535,100672,302677,393933
1629880739545,100654,302652,393931
1629880739555,100638,302630,393937
1629880739565,100645,302604,393941
1629880739575,100628,302617,393882
1629880739585,100602,302623,393938
1629880739595,100599,302614,393950
1629880739605,100600,302630,393957
1629880739615,100597,302603,393949
1629880739625,100585,302625,393943
1629880739635,100587,302633,393936
1629880739645,100577,302599,393933
1629880739655,100567,302597,393901
1629880739665,100550,302580,393883
1629880739675,100526,302569,393912
1629880739685,100522,302579,393894
1629880739695,100505,302524,393887
1629880739705,100519,302538,393863
1629880739715,100482,302568,393884
1629880739725,100485,302524,393888
1629880739735,100474,302556,393902
1629880739745,100473,302525,393911
1629880739755,100457,302556,393874
1629880739765,100466,302544,393934
1629880739775,100459,302562,393920
1629880739785,100447,302572,393920
1629880739795,100430,302548,393917
1629880739805,100431,302541,393900
1629880739815,100425,302551,393858
1629880739825,100437,302515,393908
1629880739835,100432,302540,393894
1629880739845,100419,302543,393902
1629880739855,100417,302542,393900
1629880739865,100401,302517,393914
1629880739875,100408,302523,393878
1629880739885,100379,302509,393889
1629880739895,100380,302512,393903
1629880739905,100373,302543,393901
1629880739915,100377,302540,393912
1629880739925,100373,302537,393918
1629880739935,100385,302539,393863
1629880739945,100374,302496,393918
1629880739955,100365,302538,393891
1629880739965,100364,302565,393900
1629880739975,100363,302550,393888
1629880739985,100367,302592,393925
1629880739995,100367,302557,393925
1629880740005,100364,302581,393993
1629880740015,100362,302586,393943
1629880740025,100356,302553,393929
1629880740035,100355,302547,393914
1629880740045,100366,302576,393880
1629880740055,100366,302566,393892
1629880740065,100364,302583,393895
1629880740075,100357,302569,393955
1629880740085,100369,302603,393963
1629880740095,100370,302581,393965
1629880740105,100374,302586,393928
1629880740115,100364,302603,393954
1629880740125,100381,302595,393980
1629880740135,100372,302636,393933
1629880740145,100365,302617,393989
1629880740155,100364,302634,393950
1629880740165,100364,302595,393954
1629880740175,100372,302591,393964
1629880740185,100375,302612,393984
1629880740195,100375,302631,393974
1629880740205,100386,302605,394003
1629880740215,100397,302618,393952
1629880740225,100381,302644,393954
1629880740235,100383,302647,393973
1629880740245,100384,302647,394010
1629880740255,100393,302668,394033
1629880740265,100400,302645,393998
1629880740275,100387,302687,393970
1629880740285,100399,302683,393976
1629880740295,100406,302677,393997
1629880740305,100405,302664,393994
1629880740315,100411,302648,393986
1629880740325,100401,302636,393976
1629880740335,100398,302590,394024
1629880740345,100384,302612,393962
1629880740355,100399,302595,393968
1629880740365,100365,302572,393964
1629880740375,100383,302578,393989
1629880740385,100372,302561,393975
1629880740395,100362,302548,393998
1629880740405,100349,302553,393954
1629880740415,100344,302534,393947
1629880740425,100324,302554,393989
1629880740435,100319,302518,394002
1629880740445,100305,302560,393943
1629880740455,100314,302531,393980
1629880740465,100299,302540,393951
1629880740475,100281,302493,393973
1629880740485,100273,302553,393992
1629880740495,100260,302532,393995
1629880740505,100246,302513,393971
1629880740515,100237,302458,393915
1629880740525,100228,302448,393940
1629880740535,100211,302482,393963
1629880740545,100205,302437,393920
1629880740555,100199,302468,393930
1629880740565,100167,302502,393993
1629880740575,100158,302469,393954
1629880740585,100160,302417,393948
1629880740595,100144,302480,393935
1629880740605,100155,302489,393988
1629880740615,100132,302523,393930
1629880740625,100142,302488,393972
1629880740635,100122,302498,393980
1629880740645,100113,302479,393956
1629880740655,100120,302508,394003
1629880740665,100123,302464,393966
1629880740675,100088,302449,394003
1629880740685,100094,302452,393930
1629880740695,100098,302446,393994
1629880740705,100098,302471,393972
1629880740715,100094,302465,393980
1629880740725,100077,302447,393969
1629880740735,100058,302470,393993
1629880740745,100070,302442,393978
1629880740755,100056,302432,393959
1629880740765,100042,302468,393931
1629880740775,100048,302473,394005
1629880740785,100043,302449,393996
1629880740795,100037,302451,393975
1629880740805,100035,302423,394005
1629880740815,100042,302430,393975
1629880740825,100029,302468,393968
1629880740835,100045,302480,393975
1629880740845,100030,302469,393968
1629880740855,100041,302477,393999
1629880740865,100028,302449,393971
1629880740875,100030,302452,393976
1629880740885,100025,302471,394002
1629880740895,100034,302453,393993
1629880740905,100021,302478,393976
1629880740915,100029,302448,394012
1629880740925,100029,302467,394002
1629880740935,100031,302458,393964
1629880740945,100026,302486,394000
1629880740955,100039,302504,394052
1629880740965,100032,302521,393977
1629880740975,100043,302469,394008
1629880740985,100037,302498,394036
1629880740995,100045,302483,394006
1629880741005,100048,302507,394034
1629880741015,100035,302539,394056
1629880741025,100034,302530,394044
1629880741035,100046,302498,394034
1629880741045,100046,302473,394075
1629880741055,100051,302460,394058
1629880741065,100056,302485,394042
1629880741075,100054,302516,394056
1629880741085,100067,302524,394070
1629880741095,100058,302568,394028
1629880741105,100053,302492,394028
1629880741115,100056,302536,394010
1629880741125,100054,302521,394004
1629880741135,100074,302506,394007
1629880741145,100061,302544,394044
1629880741155,100071,302502,394054
1629880741165,100084,302541,394071
1629880741175,100065,302522,394055
1629880741185,100083,302546,394093
1629880741195,100080,302472,394051
1629880741205,100087,302500,394015
1629880741215,100082,302546,394017
1629880741225,100076,302508,394021
1629880741235,100084,302465,394052
1629880741245,100083,302462,394060
1629880741255,100076,302488,394022
1629880741265,100053,302448,394047
1629880741275,100043,302446,394040
1629880741285,100039,302434,394080
1629880741295,100035,302443,393992
1629880741305,100022,302375,394059
1629880741315,100005,302440,394049
1629880741325,100012,302416,394038
1629880741335,99996,302414,394050
1629880741345,99988,302384,394029
1629880741355,99985,302446,394006
1629880741365,99970,302418,394026
1629880741375,99950,302383,394022
1629880741385,99943,302400,394029
1629880741395,99926,302339,394012
1629880741405,99921,302357,394014
1629880741415,99911,302350,394040
1629880741425,99902,302343,394005
1629880741435,99892,302364,394027
1629880741445,99884,302360,394007
1629880741455,99872,302337,394046
1629880741465,99876,302341,394054
1629880741475,99865,302360,393999
1629880741485,99861,302402,394022
1629880741495,99845,302398,394067
1629880741505,99839,302360,394048
1629880741515,99848,302376,394022
1629880741525,99839,302334,394046
1629880741535,99819,302355,394074
1629880741545,99837,302362,394065
1629880741555,99813,302341,394008
1629880741565,99810,302398,394039
1629880741575,99809,302335,394027
1629880741585,99791,302321,394046
1629880741595,99785,302306,394034
1629880741605,99778,302356,394030
1629880741615,99773,302306,394054
1629880741625,99774,302334,394016
1629880741635,99765,302349,394029
1629880741645,99761,302331,394099
1629880741655,99775,302325,394026
1629880741665,99751,302301,394061
1629880741675,99758,302347,394058
1629880741685,99749,302285,394062
1629880741695,99747,302373,394028
1629880741705,99743,302312,394080
1629880741715,99750,302370,394062
1629880741725,99742,302333,394018
1629880741735,99748,302339,394041
1629880741745,99739,302338,394059
1629880741755,99745,302333,394033
1629880741765,99740,302336,394070
1629880741775,99732,302346,394068
1629880741785,99734,302330,394084
1629880741795,99729,302339,394064
1629880741805,99752,302363,394069
1629880741815,99751,302340,394042
1629880741825,99732,302332,394069
1629880741835,99753,302379,394095
1629880741845,99750,302366,394113
1629880741855,99763,302358,394131
1629880741865,99766,302373,394123
1629880741875,99752,302373,394146
1629880741885,99765,302412,394144
1629880741895,99769,302362,394121
1629880741905,99770,302394,394150
1629880741915,99764,302410,394122
1629880741925,99757,302369,394145
1629880741935,99777,302461,394150
1629880741945,99772,302420,394142
1629880741955,99771,302378,394146
1629880741965,99765,302379,394114
1629880741975,99785,302450,394150
1629880741985,99778,302402,394143
1629880741995,99784,302430,394150
1629880742005,99794,302400,394129
1629880742015,99789,302402,394131
1629880742025,99801,302450,394204
1629880742035,99795,302420,394166
1629880742045,99795,302415,394189
1629880742055,99802,302446,394209
1629880742065,99807,302424,394164
1629880742075,99812,302399,394143
1629880742085,99807,302412,394177
1629880742095,99813,302402,394162
1629880742105,99811,302387,394150
1629880742115,99822,302458,394142
1629880742125,99821,302425,394162
1629880742135,99828,302399,394129
1629880742145,99830,302414,394172
1629880742155,99859,302449,394191
1629880742165,99854,302454,394199
1629880742175,99856,302471,394198
1629880742185,99855,302476,394193
1629880742195,99867,302460,394219
1629880742205,99867,302458,394177
1629880742215,99866,302454,394148
1629880742225,99860,302376,394204
1629880742235,99884,302443,394172
1629880742245,99874,302393,394167
1629880742255,99880,302395,394204
1629880742265,99870,302444,394196
1629880742275,99864,302409,394140
1629880742285,99856,302383,394201
1629880742295,99837,302382,394196
1629880742305,99848,302367,394188
1629880742315,99824,302327,394184
1629880742325,99823,302348,394182
1629880742335,99814,302342,394203
1629880742345,99802,302366,394212
1629880742355,99808,302334,394170
1629880742365,99778,302358,394158
1629880742375,99772,302323,394170
1629880742385,99763,302281,394204
1629880742395,99750,302277,394187
1629880742405,99744,302299,394167
1629880742415,99734,302268,394167
1629880742425,99731,302274,394172
1629880742435,99724,302248,394110
1629880742445,99705,302255,394123
1629880742455,99710,302278,394185
1629880742465,99682,302294,394172
1629880742475,99702,302313,394129
1629880742485,99673,302295,394199
1629880742495,99673,302271,394190
1629880742505,99676,302271,394165
1629880742515,99667,302293,394178
1629880742525,99666,302268,394158
1629880742535,99659,302281,394193
1629880742545,99664,302301,394192
1629880742555,99654,302249,394144
1629880742565,99648,302220,394152
1629880742575,99643,302251,394126
1629880742585,99639,302245,394132
1629880742595,99626,302208,394140
1629880742605,99628,302255,394155
1629880742615,99634,302217,394117
1629880742625,99619,302222,394131
1629880742635,99625,302222,394178
1629880742645,99608,302247,394137
1629880742655,99614,302247,394176
1629880742665,99619,302253,394127
1629880742675,99611,302242,394113
1629880742685,99613,302304,394183
1629880742695,99603,302280,394211
1629880742705,99616,302296,394185
1629880742715,99625,302257,394161
1629880742725,99628,302278,394207
1629880742735,99622,302278,394217
1629880742745,99622,302250,394199
1629880742755,99616,302324,394205
1629880742765,99620,302262,394203
1629880742775,99606,302261,394181
1629880742785,99630,302246,394205
1629880742795,99638,302290,394200
1629880742805,99635,302265,394263
1629880742815,99636,302314,394197
1629880742825,99633,302298,394173
1629880742835,99647,302278,394253
1629880742845,99646,302288,394195
1629880742855,99636,302285,394224
1629880742865,99650,302302,394247
1629880742875,99653,302287,394252
1629880742885,99659,302276,394213
1629880742895,99663,302307,394212
1629880742905,99658,302310,394198
1629880742915,99664,302310,394199
1629880742925,99661,302314,394226
1629880742935,99677,302305,394238
1629880742945,99688,302322,394257
1629880742955,99687,302309,394288
1629880742965,99688,302292,394210
1629880742975,99684,302333,394234
1629880742985,99698,302306,394239
1629880742995,99699,302299,394213
1629880743005,99692,302324,394243
1629880743015,99708,302345,394205
1629880743025,99701,302321,394244
1629880743035,99708,302317,394269
1629880743045,99709,302319,394262
1629880743055,99719,302332,394262
1629880743065,99720,302340,394234
1629880743075,99722,302365,394261
1629880743085,99722,302338,394276
1629880743095,99735,302352,394242
1629880743105,99738,302334,394228
1629880743115,99739,302396,394265
1629880743125,99761,302340,394276
1629880743135,99765,302403,394311
1629880743145,99785,302360,394256
1629880743155,99778,302401,394311
1629880743165,99800,302375,394314
1629880743175,99799,302404,394314
1629880743185,99804,302381,394283
1629880743195,99806,302338,394325
1629880743205,99804,302345,394276
1629880743215,99811,302339,394287
1629880743225,99821,302313,394313
1629880743235,99811,302336,394288
1629880743245,99797,302321,394287
1629880743255,99811,302357,394349
1629880743265,99788,302288,394333
1629880743275,99786,302358,394266
1629880743285,99775,302272,394282
1629880743295,99790,302346,394243
1629880743305,99756,302279,394244
1629880743315,99766,302266,394277
1629880743325,99752,302284,394271
1629880743335,99743,302246,394261
1629880743345,99746,302239,394258
1629880743355,99736,302226,394279
1629880743365,99717,302245,394258
1629880743375,99709,302245,394280
1629880743385,99697,302235,394205
1629880743395,99693,302216,394240
1629880743405,99687,302243,394292
1629880743415,99683,302234,394265
1629880743425,99670,302209,394240
1629880743435,99671,302193,394212
1629880743445,99659,302180,394230
1629880743455,99665,302156,394220
1629880743465,99665,302205,394239
1629880743475,99672,302226,394254
1629880743485,99672,302177,394281
1629880743495,99662,302211,394267
1629880743505,99647,302195,394234
1629880743515,99657,302177,394220
1629880743525,99657,302205,394265
1629880743535,99653,302213,394285
1629880743545,99652,302249,394281
1629880743555,99643,302194,394283
1629880743565,99652,302207,394236
1629880743575,99648,302189,394255
1629880743585,99632,302185,394271
1629880743595,99637,302190,394224
1629880743605,99625,302235,394223
1629880743615,99637,302226,394279
1629880743625,99638,302199,394292
1629880743635,99630,302193,394253
1629880743645,99637,302183,394284
1629880743655,99629,302197,394271
1629880743665,99634,302273,394313
1629880743675,99647,302210,394285
1629880743685,99638,302232,394287
1629880743695,99639,302189,394314
1629880743705,99635,302228,394330
1629880743715,99646,302279,394275
1629880743725,99652,302242,394242
1629880743735,99649,302245,394307
1629880743745,99670,302227,394263
1629880743755,99648,302252,394307
1629880743765,99667,302253,394336
1629880743775,99659,302211,394330
1629880743785,99687,302249,394328
1629880743795,99689,302273,394300
1629880743805,99664,302239,394305
1629880743815,99682,302237,394322
1629880743825,99692,302250,394325
1629880743835,99698,302283,394335
1629880743845,99691,302257,394279
1629880743855,99701,302302,394349
1629880743865,99698,302284,394282
1629880743875,99722,302261,394307
1629880743885,99737,302270,394267
1629880743895,99730,302297,394324
1629880743905,99734,302253,394306
1629880743915,99731,302239,394309
1629880743925,99745,302273,394321
1629880743935,99752,302283,394345
1629880743945,99748,302268,394337
1629880743955,99772,302297,394372
1629880743965,99762,302300,394321
1629880743975,99769,302296,394369
1629880743985,99787,302306,394354
1629880743995,99795,302326,394370
1629880744005,99788,302318,394383
1629880744015,99799,302310,394407
1629880744025,99810,302319,394353
1629880744035,99811,302337,394359
1629880744045,99819,302290,394396
1629880744055,99828,302386,394391
1629880744065,99831,302347,394409
1629880744075,99833,302370,394354
1629880744085,99868,302389,394423
1629880744095,99880,302390,394414
1629880744105,99886,302397,394410
1629880744115,99893,302385,394425
1629880744125,99912,302407,394413
1629880744135,99911,302414,394453
1629880744145,99920,302398,394448
1629880744155,99923,302411,394436
1629880744165,99922,302372,394439
1629880744175,99918,302460,394461
1629880744185,99919,302403,394449
1629880744195,99933,302361,394405
1629880744205,99939,302351,394460
1629880744215,99927,302324,394418
1629880744225,99925,302315,394426
1629880744235,99949,302307,394397
1629880744245,99925,302307,394386
1629880744255,99935,302304,394428
1629880744265,99923,302283,394417
1629880744275,99923,302303,394463
1629880744285,99912,302340,394438
1629880744295,99915,302292,394414
1629880744305,99907,302290,394418
1629880744315,99914,302301,394409
1629880744325,99905,302308,394403
1629880744335,99899,302306,394383
1629880744345,99901,302317,394389
1629880744355,99899,302324,394411
1629880744365,99899,302312,394411
1629880744375,99887,302327,394406
1629880744385,99896,302291,394398
1629880744395,99897,302283,394411
1629880744405,99896,302272,394451
1629880744415,99908,302331,394466
1629880744425,99901,302299,394477
1629880744435,99896,302326,394454
1629880744445,99902,302320,394428
1629880744455,99893,302292,394475
1629880744465,99908,302303,394433
1629880744475,99897,302318,394473
1629880744485,99897,302329,394451
1629880744495,99904,302339,394482
1629880744505,99904,302340,394501
1629880744515,99916,302308,394434
1629880744525,99916,302324,394452
1629880744535,99910,302326,394440
1629880744545,99906,302298,394458
1629880744555,99915,302298,394472
1629880744565,99908,302295,394461
1629880744575,99911,302310,394467
1629880744585,99916,302281,394492
1629880744595,99912,302359,394509
1629880744605,99931,302332,394456
1629880744615,99918,302355,394466
1629880744625,99937,302366,394499
1629880744635,99941,302333,394482
1629880744645,99916,302346,394476
1629880744655,99949,302356,394502
1629880744665,99939,302352,394517
1629880744675,99939,302338,394505
1629880744685,99949,302349,394554
1629880744695,99949,302344,394533
1629880744705,99953,302362,394526
1629880744715,99971,302384,394547
1629880744725,99972,302389,394547
1629880744735,99948,302378,394542
1629880744745,99980,302358,394519
1629880744755,99999,302357,394512
1629880744765,99982,302399,394541
1629880744775,100009,302359,394531
1629880744785,100011,302397,394518
1629880744795,100008,302418,394536
1629880744805,100022,302416,394546
1629880744815,100033,302408,394548
1629880744825,100032,302401,394516
1629880744835,100037,302415,394537
1629880744845,100049,302423,394561
1629880744855,100065,302391,394586
1629880744865,100040,302417,394557
1629880744875,100066,302413,394586
1629880744885,100061,302432,394573
1629880744895,100070,302402,394568
1629880744905,100096,302438,394593
1629880744915,100092,302486,394562
1629880744925,100107,302471,394621
1629880744935,100108,302462,394603
1629880744945,100117,302439,394585
1629880744955,100114,302470,394575
1629880744965,100115,302483,394601
1629880744975,100135,302470,394639
1629880744985,100130,302464,394637
1629880744995,100144,302460,394597
1629880745005,100155,302470,394556
1629880745015,100149,302464,394606
1629880745025,100157,302417,394592
1629880745035,100156,302437,394593
1629880745045,100149,302377,394552
1629880745055,100133,302463,394591
1629880745065,100154,302423,394619
1629880745075,100150,302366,394588
1629880745085,100142,302372,394572
1629880745095,100152,302397,394649
1629880745105,100149,302417,394618
1629880745115,100153,302402,394578
1629880745125,100153,302416,394610
1629880745135,100153,302385,394641
1629880745145,100143,302423,394584
1629880745155,100145,302378,394615
1629880745165,100142,302400,394587
1629880745175,100138,302375,394607
1629880745185,100136,302361,394589
1629880745195,100129,302384,394603
1629880745205,100128,302372,394591
1629880745215,100122,302358,394594
1629880745225,100128,302351,394606
1629880745235,100143,302385,394597
1629880745245,100139,302355,394606
1629880745255,100134,302420,394638
1629880745265,100126,302367,394589
1629880745275,100133,302397,394607
1629880745285,100143,302379,394589
1629880745295,100133,302348,394598
1629880745305,100145,302335,394613
1629880745315,100143,302384,394646
1629880745325,100148,302409,394638
1629880745335,100143,302376,394596
1629880745345,100156,302349,394598
1629880745355,100153,302394,394537
1629880745365,100137,302376,394599
1629880745375,100165,302418,394580
1629880745385,100156,302425,394580
1629880745395,100161,302393,394625
1629880745405,100167,302401,394648
1629880745415,100160,302398,394647
1629880745425,100177,302370,394646
1629880745435,100159,302424,394640
1629880745445,100175,302408,394654
1629880745455,100173,302425,394644
1629880745465,100181,302392,394623
1629880745475,100183,302411,394612
1629880745485,100194,302437,394617
1629880745495,100194,302396,394636
1629880745505,100189,302397,394645
1629880745515,100185,302428,394655
1629880745525,100211,302421,394675
1629880745535,100196,302457,394652
1629880745545,100216,302450,394640
1629880745555,100223,302476,394617
1629880745565,100225,302454,394656
1629880745575,100234,302434,394663
1629880745585,100231,302483,394612
1629880745595,100231,302432,394641
1629880745605,100258,302483,394656
1629880745615,100251,302447,394665
1629880745625,100267,302506,394650
1629880745635,100269,302421,394724
1629880745645,100280,302488,394659
1629880745655,100287,302455,394680
1629880745665,100293,302495,394671
1629880745675,100297,302470,394663
1629880745685,100300,302480,394683
1629880745695,100304,302441,394705
1629880745705,100314,302493,394716
1629880745715,100315,302497,394657
1629880745725,100336,302491,394677
1629880745735,100321,302521,394679
1629880745745,100348,302528,394689
1629880745755,100362,302499,394689
1629880745765,100363,302523,394660
1629880745775,100374,302486,394721
1629880745785,100381,302536,394670
1629880745795,100383,302502,394733
1629880745805,100381,302546,394677
1629880745815,100365,302452,394705
1629880745825,100382,302444,394659
1629880745835,100372,302464,394712
1629880745845,100380,302430,394641
1629880745855,100370,302448,394693
1629880745865,100376,302459,394671
1629880745875,100375,302404,394632
1629880745885,100375,302391,394647
1629880745895,100360,302345,394641
1629880745905,100353,302330,394603
1629880745915,100342,302334,394609
1629880745925,100349,302383,394586
1629880745935,100359,302372,394613
1629880745945,100352,302357,394660
1629880745955,100343,302372,394576
1629880745965,100351,302333,394664
1629880745975,100337,302371,394642
1629880745985,100331,302353,394608
1629880745995,100335,302314,394604
1629880746005,100314,302333,394594
1629880746015,100310,302321,394624
1629880746025,100311,302331,394566
1629880746035,100316,302317,394604
1629880746045,100308,302317,394545
1629880746055,100292,302315,394589
1629880746065,100306,302253,394549
1629880746075,100289,302270,394623
1629880746085,100281,302323,394573
1629880746095,100283,302348,394604
1629880746105,100280,302343,394570
1629880746115,100281,302314,394586
1629880746125,100289,302320,394578
1629880746135,100292,302336,394548
1629880746145,100294,302341,394567
1629880746155,100284,302303,394595
1629880746165,100276,302354,394608
1629880746175,100287,302312,394567
1629880746185,100287,302294,394606
1629880746195,100269,302315,394542
1629880746205,100275,302278,394584
1629880746215,100270,302281,394548
1629880746225,100269,302262,394605
1629880746235,100269,302342,394561
1629880746245,100264,302225,394592
1629880746255,100269,302284,394581
1629880746265,100277,302263,394606
1629880746275,100273,302294,394579
1629880746285,100275,302313,394620
1629880746295,100279,302320,394611
1629880746305,100280,302298,394566
1629880746315,100294,302312,394641
1629880746325,100288,302305,394599
1629880746335,100304,302357,394585
1629880746345,100292,302330,394601
1629880746355,100289,302325,394607
1629880746365,100310,302314,394604
1629880746375,100315,302337,394631
1629880746385,100321,302358,394634
1629880746395,100321,302344,394625
1629880746405,100319,302369,394662
1629880746415,100327,302320,394652
1629880746425,100335,302353,394639
1629880746435,100328,302334,394632
1629880746445,100332,302360,394644
1629880746455,100338,302375,394674
1629880746465,100351,302350,394641
1629880746475,100346,302384,394620
1629880746485,100353,302386,394684
1629880746495,100353,302326,394652
1629880746505,100357,302365,394623
1629880746515,100363,302391,394627
1629880746525,100374,302402,394659
1629880746535,100380,302373,394650
1629880746545,100382,302401,394642
1629880746555,100384,302379,394654
1629880746565,100392,302426,394660
1629880746575,100408,302373,394639
1629880746585,100406,302379,394651
1629880746595,100406,302409,394645
1629880746605,100405,302371,394665
1629880746615,100412,302375,394651
1629880746625,100418,302410,394634
1629880746635,100433,302361,394646
1629880746645,100421,302350,394639
1629880746655,100427,302365,394626
1629880746665,100424,302344,394579
1629880746675,100440,302348,394651
1629880746685,100419,302283,394655
1629880746695,100421,302278,394641
1629880746705,100421,302285,394617
1629880746715,100408,302275,394609
1629880746725,100393,302279,394570
1629880746735,100388,302233,394588
1629880746745,100390,302234,394585
1629880746755,100383,302270,394630
1629880746765,100385,302242,394558
1629880746775,100368,302225,394598
1629880746785,100369,302226,394600
1629880746795,100362,302245,394596
1629880746805,100348,302217,394571
1629880746815,100348,302204,394605
1629880746825,100326,302205,394594
1629880746835,100317,302177,394544
1629880746845,100323,302209,394552
1629880746855,100319,302185,394547
1629880746865,100300,302189,394533
1629880746875,100298,302157,394537
1629880746885,100284,302173,394543
1629880746895,100278,302152,394563
1629880746905,100274,302196,394576
1629880746915,100280,302179,394535
1629880746925,100269,302207,394549
1629880746935,100280,302177,394544
1629880746945,100266,302174,394539
1629880746955,100268,302187,394554
1629880746965,100285,302190,394551
1629880746975,100260,302155,394596
1629880746985,100271,302196,394554
1629880746995,100269,302165,394554
1629880747005,100257,302154,394551
1629880747015,100260,302190,394555
1629880747025,100249,302166,394539
1629880747035,100264,302156,394545
1629880747045,100238,302140,394551
1629880747055,100236,302152,394514
1629880747065,100234,302115,394548
1629880747075,100234,302153,394535
1629880747085,100228,302130,394561
1629880747095,100247,302174,394558
1629880747105,100243,302146,394519
1629880747115,100242,302161,394532
1629880747125,100237,302205,394536
1629880747135,100247,302156,394533
1629880747145,100232,302168,394538
1629880747155,100236,302162,394532
1629880747165,100244,302134,394563
1629880747175,100248,302156,394542
1629880747185,100251,302146,394536
1629880747195,100253,302138,394535
1629880747205,100246,302170,394611
1629880747215,100251,302142,394549
1629880747225,100244,302181,394583
1629880747235,100254,302178,394581
1629880747245,100253,302168,394547
1629880747255,100266,302202,394538
1629880747265,100265,302181,394577
1629880747275,100270,302211,394599
1629880747285,100273,302200,394567
1629880747295,100283,302189,394608
1629880747305,100273,302177,394610
1629880747315,100280,302229,394618
1629880747325,100295,302258,394606
1629880747335,100292,302211,394586
1629880747345,100312,302212,394590
1629880747355,100317,302231,394617
1629880747365,100314,302237,394596
1629880747375,100329,302272,394632
1629880747385,100328,302189,394610
1629880747395,100331,302229,394605
1629880747405,100334,302236,394571
1629880747415,100341,302236,394588
1629880747425,100336,302260,394584
1629880747435,100350,302230,394553
1629880747445,100347,302253,394611
1629880747455,100349,302283,394598
1629880747465,100365,302246,394604
1629880747475,100387,302272,394623
1629880747485,100385,302287,394597
1629880747495,100372,302277,394633
1629880747505,100379,302267,394607
1629880747515,100388,302276,394620
1629880747525,100379,302244,394589
1629880747535,100383,302237,394562
1629880747545,100390,302221,394567
1629880747555,100395,302284,394619
1629880747565,100392,302216,394602
1629880747575,100375,302203,394611
1629880747585,100376,302198,394625
1629880747595,100365,302162,394584
1629880747605,100364,302145,394580
1629880747615,100359,302158,394591
1629880747625,100360,302132,394571
1629880747635,100351,302163,394588
1629880747645,100356,302205,394580
1629880747655,100353,302161,394628
1629880747665,100320,302230,394561
1629880747675,100331,302118,394593
1629880747685,100323,302152,394556
1629880747695,100301,302134,394572
1629880747705,100302,302143,394573
1629880747715,100285,302153,394602
1629880747725,100286,302073,394562
1629880747735,100273,302073,394558
1629880747745,100269,302110,394513
1629880747755,100266,302099,394539
1629880747765,100266,302120,394552
1629880747775,100264,302096,394582
1629880747785,100260,302141,394568
1629880747795,100236,302140,394579
1629880747805,100239,302117,394542
1629880747815,100231,302090,394572
1629880747825,100236,302083,394538
1629880747835,100208,302091,394574
1629880747845,100208,302067,394577
1629880747855,100199,302053,394580
1629880747865,100193,302082,394595
1629880747875,100178,302061,394631
1629880747885,100174,302067,394621
1629880747895,100168,302062,394587
1629880747905,100164,302096,394585
1629880747915,100165,302072,394599
1629880747925,100165,302077,394617
1629880747935,100151,302090,394609
1629880747945,100158,302119,394626
1629880747955,100153,302075,394591
1629880747965,100163,302088,394599
1629880747975,100162,302070,394642
1629880747985,100166,302107,394569
1629880747995,100163,302106,394584
1629880748005,100160,302103,394627
1629880748015,100154,302123,394636
1629880748025,100172,302102,394637
1629880748035,100163,302081,394633
1629880748045,100166,302064,394618
1629880748055,100175,302111,394644
1629880748065,100172,302108,394608
1629880748075,100175,302073,394622
1629880748085,100177,302107,394649
1629880748095,100186,302106,394604
1629880748105,100189,302134,394628
1629880748115,100189,302121,394616
1629880748125,100211,302148,394641
1629880748135,100208,302145,394636
1629880748145,100194,302153,394591
1629880748155,100224,302162,394639
1629880748165,100224,302142,394608
1629880748175,100227,302193,394573
1629880748185,100232,302144,394592
1629880748195,100234,302151,394626
1629880748205,100238,302159,394644
1629880748215,100254,302174,394577
1629880748225,100251,302170,394631
1629880748235,100265,302144,394615
1629880748245,100266,302155,394641
1629880748255,100265,302160,394640
1629880748265,100264,302185,394627
1629880748275,100283,302206,394622
1629880748285,100274,302177,394601
1629880748295,100278,302202,394601
1629880748305,100293,302147,394605
1629880748315,100279,302176,394621
1629880748325,100291,302190,394616
1629880748335,100292,302158,394610
1629880748345,100297,302178,394590
1629880748355,100311,302207,394593
1629880748365,100313,302186,394619
1629880748375,100310,302196,394601
1629880748385,100317,302210,394597
1629880748395,100332,302169,394658
1629880748405,100331,302190,394593
1629880748415,100343,302185,394596
1629880748425,100332,302154,394601
1629880748435,100324,302195,394561
1629880748445,100345,302120,394579
1629880748455,100336,302137,394605
1629880748465,100347,302094,394580
1629880748475,100311,302128,394584
1629880748485,100311,302084,394563
1629880748495,100306,302099,394571
1629880748505,100319,302077,394569
1629880748515,100310,302080,394546
1629880748525,100311,302082,394551
1629880748535,100297,302117,394550
1629880748545,100288,302086,394557
1629880748555,100307,302091,394593
1629880748565,100287,302105,394528
1629880748575,100273,302052,394548
1629880748585,100267,302083,394570
1629880748595,100245,302079,394573
1629880748605,100252,302043,394592
1629880748615,100239,302040,394528
1629880748625,100229,302046,394535
1629880748635,100208,301998,394534
1629880748645,100219,302020,394512
1629880748655,100216,302034,394491
1629880748665,100223,302056,394520
1629880748675,100228,302034,394534
1629880748685,100212,302060,394581
1629880748695,100215,302077,394568
1629880748705,100193,302022,394533
1629880748715,100212,302012,394541
1629880748725,100204,302059,394512
1629880748735,100195,302022,394539
1629880748745,100188,302028,394508
1629880748755,100182,302032,394586
1629880748765,100205,302058,394569
1629880748775,100203,302053,394545
1629880748785,100189,302026,394492
1629880748795,100174,301994,394539
1629880748805,100176,302037,394491
1629880748815,100180,302018,394506
1629880748825,100163,302057,394525
1629880748835,100175,301979,394535
1629880748845,100168,302011,394530
1629880748855,100161,302037,394547
1629880748865,100167,302051,394544
1629880748875,100169,302027,394565
1629880748885,100174,301989,394515
1629880748895,100174,302047,394547
1629880748905,100170,302071,394581
1629880748915,100179,302044,394593
1629880748925,100170,302048,394577
1629880748935,100166,302044,394591
1629880748945,100177,302085,394553
1629880748955,100172,302096,394584
1629880748965,100173,302044,394552
1629880748975,100184,302039,394600
1629880748985,100178,302116,394577
1629880748995,100188,302092,394641
1629880749005,100191,302142,394605
1629880749015,100187,302137,394614
1629880749025,100197,302113,394589
1629880749035,100206,302113,394619
1629880749045,100204,302107,394647
1629880749055,100208,302068,394600
1629880749065,100220,302093,394621
1629880749075,100223,302146,394646
1629880749085,100225,302117,394591
1629880749095,100234,302150,394611
1629880749105,100241,302115,394648
1629880749115,100240,302162,394602
1629880749125,100245,302166,394677
1629880749135,100227,302154,394626
1629880749145,100243,302143,394625
1629880749155,100252,302164,394647
1629880749165,100258,302174,394637
1629880749175,100274,302236,394616
1629880749185,100265,302145,394610
1629880749195,100270,302202,394632
1629880749205,100273,302153,394595
1629880749215,100279,302189,394669
1629880749225,100275,302198,394681
1629880749235,100297,302176,394615
1629880749245,100306,302210,394613
1629880749255,100287,302162,394652
1629880749265,100300,302173,394654
1629880749275,100308,302202,394710
1629880749285,100311,302197,394628
1629880749295,100326,302232,394677
1629880749305,100328,302208,394686
1629880749315,100349,302209,394642
1629880749325,100339,302254,394663
1629880749335,100350,302203,394656
1629880749345,100357,302182,394689
1629880749355,100359,302205,394626
1629880749365,100349,302215,394653
1629880749375,100347,302187,394694
1629880749385,100354,302158,394635
1629880749395,100337,302125,394622
1629880749405,100340,302170,394619
1629880749415,100319,302082,394638
1629880749425,100327,302133,394615
1629880749435,100317,302137,394639
1629880749445,100312,302185,394665
1629880749455,100313,302109,394608
1629880749465,100320,302120,394652
1629880749475,100301,302131,394665
1629880749485,100299,302132,394616
1629880749495,100281,302097,394626
1629880749505,100273,302057,394608
1629880749515,100278,302079,394630
1629880749525,100264,302082,394649
1629880749535,100267,302059,394594
1629880749545,100244,302039,394562
1629880749555,100242,302059,394580
1629880749565,100230,302040,394566
1629880749575,100251,302044,394541
1629880749585,100227,302072,394588
1629880749595,100224,302048,394630
1629880749605,100236,302069,394608
1629880749615,100225,302059,394591
1629880749625,100230,302032,394614
1629880749635,100217,302086,394609
1629880749645,100213,302028,394618
1629880749655,100219,302063,394628
1629880749665,100221,302108,394614
1629880749675,100214,302071,394627
1629880749685,100205,302044,394551
1629880749695,100195,302075,394604
1629880749705,100200,301985,394592
1629880749715,100182,302034,394549
1629880749725,100171,301980,394533
1629880749735,100192,301960,394552
1629880749745,100171,301978,394546
1629880749755,100177,302034,394531
1629880749765,100183,302002,394529
1629880749775,100167,301987,394557
1629880749785,100171,301960,394515
1629880749795,100165,301992,394550
1629880749805,100160,302003,394479
1629880749815,100163,301954,394573
1629880749825,100162,301956,394557
1629880749835,100164,301979,394495
1629880749845,100162,301957,394457
1629880749855,100166,301970,394460
1629880749865,100163,301933,394460
1629880749875,100174,301957,394481
1629880749885,100179,301946,394458
1629880749895,100179,301953,394471
1629880749905,100169,301971,394429
1629880749915,100188,301972,394470
1629880749925,100212,301971,394461
1629880749935,100227,301991,394432
1629880749945,100246,302038,394430
1629880749955,100282,302092,394465
1629880749965,100299,302059,394498
1629880749975,100346,302107,394437
1629880749985,100356,302153,394467
1629880749995,100391,302180,394461
1629880750005,100435,302253,394540
1629880750015,100491,302308,394616
1629880750025,100544,302399,394686
1629880750035,100598,302450,394741
1629880750045,100663,302465,394786
1629880750055,100703,302506,394829
1629880750065,100778,302552,394916
1629880750075,100840,302563,395007
1629880750085,100929,302673,395102
1629880750095,101006,302713,395269
1629880750105,101087,302814,395378
1629880750115,101176,302853,395465
1629880750125,101248,302842,395582
1629880750135,101333,302919,395746
1629880750145,101441,302949,395817
1629880750155,101521,302966,395919
1629880750165,101604,303025,396011
1629880750175,101677,302970,396051
1629880750185,101743,302908,396099
1629880750195,101811,302766,396093
1629880750205,101853,302660,396037
1629880750215,101903,302535,395992
1629880750225,101953,302386,395925
1629880750235,102018,302295,395899
1629880750245,102072,302169,395834
1629880750255,102137,302076,395887
1629880750265,102200,302008,395873
1629880750275,102262,301895,395853
1629880750285,102340,301879,395852
1629880750295,102402,301844,395888
1629880750305,102464,301836,395895
1629880750315,102523,301801,395973
1629880750325,102588,301832,396000
1629880750335,102648,301839,396071
1629880750345,102704,301836,396085
1629880750355,102742,301832,396159
1629880750365,102788,301813,396181
1629880750375,102815,301826,396207
1629880750385,102855,301851,396244
1629880750395,102902,301834,396260
1629880750405,102920,301865,396256
1629880750415,102935,301921,396320
1629880750425,102981,301925,396340
1629880750435,102998,301938,396384
1629880750445,103015,301956,396404
1629880750455,103030,302010,396438
1629880750465,103037,302016,396477
1629880750475,103065,302053,396499
1629880750485,103059,302052,396516
1629880750495,103081,302067,396554
1629880750505,103086,302120,396572
1629880750515,103114,302171,396573
1629880750525,103117,302190,396625
1629880750535,103135,302189,396627
1629880750545,103169,302176,396597
1629880750555,103153,302153,396581
1629880750565,103148,302128,396610
1629880750575,103155,302163,396601
1629880750585,103169,302123,396589
1629880750595,103164,302093,396558
1629880750605,103177,302091,396583
1629880750615,103195,302062,396532
1629880750625,103206,302033,396535
1629880750635,103214,301993,396491
1629880750645,103228,301965,396481
1629880750655,103237,301851,396443
1629880750665,103258,301816,396400
1629880750675,103271,301743,396340
1629880750685,103279,301639,396290
1629880750695,103285,301499,396211
1629880750705,103322,301471,396107
1629880750715,103340,301335,396048
1629880750725,103399,301227,396059
1629880750735,103426,301146,395966
1629880750745,103466,301115,395929
1629880750755,103520,301042,395925
1629880750765,103579,301032,395897
1629880750775,103622,301050,395923
1629880750785,103684,301016,395957
1629880750795,103728,301039,396003
1629880750805,103792,301048,396036
1629880750815,103835,301063,396099
1629880750825,103879,301088,396109
1629880750835,103915,301103,396165
1629880750845,103940,301172,396195
1629880750855,103975,301182,396279
1629880750865,103996,301230,396312
1629880750875,104018,301259,396341
1629880750885,104016,301320,396371
1629880750895,104028,301331,396380
1629880750905,104021,301352,396403
1629880750915,104024,301363,396406
1629880750925,104022,301429,396417
1629880750935,104018,301400,396407
1629880750945,104020,301461,396420
1629880750955,104007,301525,396482
1629880750965,104011,301516,396527
1629880750975,104003,301577,396543
1629880750985,104001,301630,396561
1629880750995,103987,301646,396547
1629880751005,103992,301657,396587
1629880751015,103987,301691,396576
1629880751025,103962,301792,396687
1629880751035,103985,301839,396732
1629880751045,103982,301874,396757
1629880751055,103970,301913,396839
1629880751065,103984,301996,396884
1629880751075,103987,302076,396957
1629880751085,104012,302155,396981
1629880751095,104001,302247,397048
1629880751105,104010,302306,397098
1629880751115,104027,302379,397171
1629880751125,104034,302470,397226
1629880751135,104011,302500,397233
1629880751145,104021,302575,397287
1629880751155,104021,302585,397331
1629880751165,104024,302600,397336
1629880751175,104020,302658,397366
1629880751185,104023,302744,397420
1629880751195,104050,302810,397528
1629880751205,104056,302850,397543
1629880751215,104048,302904,397571
1629880751225,104053,302911,397625
1629880751235,104071,302911,397659
1629880751245,104063,302951,397647
1629880751255,104041,302952,397618
1629880751265,104041,302956,397623
1629880751275,104021,302915,397585
1629880751285,103990,302890,397488
1629880751295,103959,302822,397385
1629880751305,103901,302800,397312
1629880751315,103832,302683,397227
1629880751325,103784,302622,397149
1629880751335,103717,302579,397045
1629880751345,103655,302534,397019
1629880751355,103589,302504,396901
1629880751365,103507,302387,396917
1629880751375,103403,302264,396795
1629880751385,103317,302220,396710
1629880751395,103238,302150,396669
1629880751405,103147,302112,396671
1629880751415,103082,302127,396651
1629880751425,103043,302169,396668
1629880751435,102989,302161,396657
1629880751445,102940,302195,396724
1629880751455,102914,302221,396761
1629880751465,102891,302256,396759
1629880751475,102863,302282,396837
1629880751485,102824,302381,396869
1629880751495,102807,302467,396962
1629880751505,102784,302491,397025
1629880751515,102770,302575,397100
1629880751525,102771,302705,397231
1629880751535,102777,302781,397408
1629880751545,102762,302929,397435
1629880751555,102769,303027,397577
1629880751565,102772,303175,397725
1629880751575,102776,303223,397830
1629880751585,102768,303371,397922
1629880751595,102770,303414,398021
1629880751605,102773,303530,398130
1629880751615,102779,303629,398239
1629880751625,102777,303724,398333
1629880751635,102773,303823,398397
1629880751645,102788,303886,398483
1629880751655,102794,303929,398562
1629880751665,102793,303997,398702
1629880751675,102802,304108,398762
1629880751685,102804,304164,398833
1629880751695,102823,304250,398884
1629880751705,102829,304294,399003
1629880751715,102834,304353,399052
1629880751725,102837,304412,399088
1629880751735,102832,304456,399214
1629880751745,102844,304535,399250
1629880751755,102848,304577,399306
1629880751765,102838,304655,399353
1629880751775,102845,304653,399378
1629880751785,102849,304708,399417
1629880751795,102847,304706,399473
1629880751805,102849,304758,399484
1629880751815,102837,304739,399527
1629880751825,102832,304735,399546
1629880751835,102801,304769,399521
1629880751845,102809,304740,399548
1629880751855,102799,304776,399526
1629880751865,102757,304711,399498
1629880751875,102737,304711,399489
1629880751885,102729,304644,399472
1629880751895,102699,304684,399454
1629880751905,102682,304683,399442
1629880751915,102661,304664,399461
1629880751925,102632,304686,399454
1629880751935,102610,304670,399421
1629880751945,102591,304691,399448
1629880751955,102568,304701,399454
1629880751965,102564,304623,399406
1629880751975,102547,304663,399420
1629880751985,102520,304661,399452
1629880751995,102511,304714,399442
1629880752005,102488,304686,399443
1629880752015,102451,304666,399429
1629880752025,102429,304687,399424
1629880752035,102421,304677,399431
1629880752045,102397,304652,399392
1629880752055,102385,304647,399357
1629880752065,102351,304637,399360
1629880752075,102354,304632,399356
1629880752085,102335,304624,399356
1629880752095,102326,304647,399388
1629880752105,102296,304619,399386
1629880752115,102293,304682,399347
1629880752125,102283,304626,399343
1629880752135,102288,304664,399376
1629880752145,102279,304679,399407
1629880752155,102265,304692,399369
1629880752165,102253,304676,399417
1629880752175,102256,304698,399398
1629880752185,102235,304756,399448
1629880752195,102245,304742,399449
1629880752205,102231,304739,399485
1629880752215,102209,304730,399428
1629880752225,102200,304698,399473
1629880752235,102165,304702,399432
1629880752245,102161,304758,399388
1629880752255,102145,304715,399378
1629880752265,102133,304735,399412
1629880752275,102101,304704,399370
1629880752285,102097,304715,399387
1629880752295,102072,304683,399309
1629880752305,102050,304714,399351
1629880752315,102032,304672,399378
1629880752325,102040,304679,399371
1629880752335,102032,304724,399321
1629880752345,102021,304735,399373
1629880752355,102011,304751,399394
1629880752365,102010,304764,399429
1629880752375,102015,304818,399439
1629880752385,102011,304825,399462
1629880752395,102007,304842,399462
1629880752405,102008,304893,399491
1629880752415,102023,304899,399532
1629880752425,102020,304976,399506
1629880752435,102031,305006,399522
1629880752445,102042,305019,399575
1629880752455,102044,305068,399567
1629880752465,102052,305069,399660
1629880752475,102066,305150,399658
1629880752485,102077,305143,399657
1629880752495,102075,305179,399717
1629880752505,102091,305207,399759
1629880752515,102090,305255,399781
1629880752525,102073,305211,399755
1629880752535,102068,305226,399748
1629880752545,102073,305224,399770
1629880752555,102060,305242,399709
1629880752565,102045,305242,399750
1629880752575,102035,305184,399698
1629880752585,102031,305196,399705
1629880752595,102018,305214,399748
1629880752605,102011,305208,399706
1629880752615,102007,305210,399676
1629880752625,102002,305262,399680
1629880752635,102008,305226,399738
1629880752645,102002,305266,399716
1629880752655,101995,305205,399723
1629880752665,101980,305216,399711
1629880752675,101990,305218,399625
1629880752685,101993,305266,399695
1629880752695,101977,305198,399657
1629880752705,101968,305203,399688
1629880752715,101947,305200,399694
1629880752725,101950,305191,399708
1629880752735,101936,305197,399694
1629880752745,101912,305219,399705
1629880752755,101919,305152,399691
1629880752765,101873,305210,399660
1629880752775,101857,305208,399659
1629880752785,101848,305206,399689
1629880752795,101830,305187,399711
1629880752805,101808,305172,399754
1629880752815,101781,305178,399728
1629880752825,101761,305205,399690
1629880752835,101723,305122,399647
1629880752845,101724,305159,399689
1629880752855,101691,305129,399621
1629880752865,101680,305147,399638
1629880752875,101658,305095,399638
1629880752885,101627,305095,399618
1629880752895,101606,305133,399652
1629880752905,101591,305090,399642
1629880752915,101579,305098,399615
1629880752925,101557,305101,399632
1629880752935,101539,305092,399650
1629880752945,101530,305132,399668
1629880752955,101508,305124,399601
1629880752965,101495,305072,399625
1629880752975,101480,305059,399567
1629880752985,101465,305053,399609
1629880752995,101451,304998,399538
1629880753005,101418,305028,399481
1629880753015,101417,305013,399473
1629880753025,101400,304959,399431
1629880753035,101365,304928,399410
1629880753045,101349,304915,399331
1629880753055,101335,304893,399349
1629880753065,101320,304876,399354
1629880753075,101316,304812,399344
1629880753085,101296,304871,399289
1629880753095,101288,304855,399288
1629880753105,101282,304853,399295
1629880753115,101276,304869,399329
1629880753125,101255,304850,399281
1629880753135,101258,304917,399290
1629880753145,101255,304878,399287
1629880753155,101241,304856,399290
1629880753165,101237,304918,399282
1629880753175,101250,304908,399352
1629880753185,101245,304935,399344
1629880753195,101240,304935,399371
1629880753205,101221,304922,399377
1629880753215,101214,304940,399392
1629880753225,101213,304934,399395
1629880753235,101208,304953,399372
1629880753245,101191,304914,399358
1629880753255,101196,304965,399337
1629880753265,101198,304952,399329
1629880753275,101187,304942,399303
1629880753285,101182,304890,399298
1629880753295,101192,304878,399323
1629880753305,101178,304869,399251
1629880753315,101174,304886,399269
1629880753325,101193,304878,399270
1629880753335,101175,304904,399298
1629880753345,101188,304945,399283
1629880753355,101189,304946,399282
1629880753365,101187,304918,399268
1629880753375,101200,304919,399284
1629880753385,101201,304947,399302
1629880753395,101204,304956,399302
1629880753405,101220,304978,399304
1629880753415,101202,304991,399335
1629880753425,101230,305033,399312
1629880753435,101229,305001,399342
1629880753445,101236,305044,399331
1629880753455,101225,305020,399363
1629880753465,101249,305113,399399
1629880753475,101243,305128,399430
1629880753485,101267,305161,399527
1629880753495,101280,305195,399505
1629880753505,101264,305179,399500
1629880753515,101282,305220,399528
1629880753525,101292,305267,399565
1629880753535,101298,305292,399604
1629880753545,101296,305332,399653
1629880753555,101295,305326,399661
1629880753565,101292,305312,399668
1629880753575,101279,305284,399675
1629880753585,101280,305355,399698
1629880753595,101274,305362,399737
1629880753605,101255,305367,399758
1629880753615,101261,305415,399749
1629880753625,101246,305395,399771
1629880753635,101230,305369,399857
1629880753645,101212,305391,399823
1629880753655,101204,305369,399888
1629880753665,101168,305348,399816
1629880753675,101141,305277,399750
1629880753685,101117,305239,399737
1629880753695,101067,305191,399615
1629880753705,101019,305136,399552
1629880753715,100975,305068,399454
1629880753725,100938,304973,399385
1629880753735,100888,304849,399233
1629880753745,100842,304781,399147
1629880753755,100806,304692,399072
1629880753765,100764,304583,398980
1629880753775,100707,304446,398833
1629880753785,100673,304338,398719
1629880753795,100629,304264,398644
1629880753805,100578,304203,398508
1629880753815,100555,304088,398428
1629880753825,100525,304067,398340
1629880753835,100504,303977,398270
1629880753845,100488,303946,398210
1629880753855,100460,303909,398176
1629880753865,100440,303848,398135
1629880753875,100410,303824,398055
1629880753885,100396,303790,398096
1629880753895,100391,303814,398074
1629880753905,100373,303821,398106
1629880753915,100363,303798,398104
1629880753925,100358,303851,398119
1629880753935,100369,303861,398115
1629880753945,100343,303842,398171
1629880753955,100339,303911,398160
1629880753965,100327,303861,398154
1629880753975,100304,303887,398154
1629880753985,100277,303911,398173
1629880753995,100281,303941,398183
1629880754005,100267,303926,398207
1629880754015,100248,303870,398197
1629880754025,100202,303887,398158
1629880754035,100193,303847,398099
1629880754045,100163,303808,398078
1629880754055,100143,303839,398074
1629880754065,100132,303748,398014
1629880754075,100123,303732,397996
1629880754085,100098,303701,397935
1629880754095,100091,303711,397948
1629880754105,100057,303678,397887
1629880754115,100050,303676,397887
1629880754125,100053,303666,397895
1629880754135,100050,303634,397895
1629880754145,100037,303667,397854
1629880754155,100027,303683,397917
1629880754165,100022,303672,397931
1629880754175,100018,303688,397969
1629880754185,100014,303684,397949
1629880754195,100002,303695,397964
1629880754205,99983,303710,397946
1629880754215,99980,303734,398000
1629880754225,99981,303748,398037
1629880754235,99971,303764,398015
1629880754245,99950,303756,398018
1629880754255,99949,303727,398063
1629880754265,99953,303806,398144
1629880754275,99942,303811,398125
1629880754285,99944,303844,398177
1629880754295,99948,303826,398201
1629880754305,99927,303846,398246
1629880754315,99914,303850,398173
1629880754325,99918,303845,398233
1629880754335,99906,303852,398266
1629880754345,99911,303888,398269
1629880754355,99899,303902,398304
1629880754365,99901,303921,398283
1629880754375,99903,303887,398369
1629880754385,99886,303938,398338
1629880754395,99894,303979,398397
1629880754405,99904,303978,398442
1629880754415,99903,303981,398433
1629880754425,99907,303940,398390
1629880754435,99889,303932,398375
1629880754445,99870,303864,398295
1629880754455,99855,303679,398135
1629880754465,99761,303514,397821
1629880754475,99685,303196,397398
1629880754485,99593,302762,396985
1629880754495,99492,302390,396609
1629880754505,99435,302163,396320
1629880754515,99375,301912,396047
1629880754525,99323,301757,395831
1629880754535,99302,301684,395769
1629880754545,99291,301637,395726
1629880754555,99303,301615,395687
1629880754565,99297,301607,395699
1629880754575,99303,301645,395692
1629880754585,99314,301635,395657
1629880754595,99323,301654,395671
1629880754605,99304,301659,395640
1629880754615,99319,301635,395635
1629880754625,99329,301678,395686
1629880754635,99346,301674,395716
1629880754645,99362,301684,395712
1629880754655,99355,301767,395802
1629880754665,99376,301831,395873
1629880754675,99411,301925,395917
1629880754685,99409,301998,396024
1629880754695,99432,302060,396149
1629880754705,99458,302116,396211
1629880754715,99466,302178,396262
1629880754725,99466,302211,396262
1629880754735,99478,302263,396284
1629880754745,99482,302317,396378
1629880754755,99474,302313,396397
1629880754765,99486,302374,396418
1629880754775,99478,302372,396493
1629880754785,99483,302475,396570
1629880754795,99486,302461,396573
1629880754805,99505,302557,396645
1629880754815,99498,302620,396697
1629880754825,99500,302583,396737
1629880754835,99504,302664,396755
1629880754845,99517,302705,396820
1629880754855,99512,302723,396858
1629880754865,99526,302835,396933
1629880754875,99544,302943,397025
1629880754885,99561,302992,397095
1629880754895,99567,303074,397159
1629880754905,99595,303155,397312
1629880754915,99598,303213,397416
1629880754925,99621,303300,397471
1629880754935,99643,303353,397511
1629880754945,99666,303454,397606
1629880754955,99667,303537,397728
1629880754965,99693,303583,397792
1629880754975,99687,303593,397804
1629880754985,99711,303629,397909
1629880754995,99716,303684,397948
1629880755005,99731,303754,398004
1629880755015,99760,303838,398082
1629880755025,99784,303943,398179
1629880755035,99792,303929,398229
1629880755045,99799,303973,398317
1629880755055,99822,303984,398289
1629880755065,99805,304039,398341
1629880755075,99825,304071,398341
1629880755085,99830,304074,398366
1629880755095,99839,304096,398342
1629880755105,99841,304058,398370
1629880755115,99828,304037,398320
1629880755125,99839,304018,398236
1629880755135,99819,304011,398214
1629880755145,99826,303976,398177
1629880755155,99815,303980,398197
1629880755165,99823,303964,398137
1629880755175,99835,303934,398146
1629880755185,99849,303975,398150
1629880755195,99842,303986,398203
1629880755205,99851,303982,398191
1629880755215,99856,303984,398164
1629880755225,99860,303956,398144
1629880755235,99876,304005,398184
1629880755245,99873,304023,398154
1629880755255,99863,303983,398178
1629880755265,99860,304047,398169
1629880755275,99864,304047,398190
1629880755285,99866,304040,398165
1629880755295,99854,304009,398143
1629880755305,99852,303963,398166
1629880755315,99855,303991,398108
1629880755325,99849,303928,398127
1629880755335,99826,303909,398097
1629880755345,99823,303822,398069
1629880755355,99798,303866,398017
1629880755365,99797,303850,398019
1629880755375,99784,303805,398003
1629880755385,99778,303836,398020
1629880755395,99749,303777,398033
1629880755405,99762,303774,398037
1629880755415,99760,303760,398033
1629880755425,99744,303748,398003
1629880755435,99754,303803,398020
1629880755445,99732,303761,398014
1629880755455,99732,303793,398027
1629880755465,99722,303810,398005
1629880755475,99717,303746,398051
1629880755485,99714,303778,398008
1629880755495,99699,303771,397983
1629880755505,99681,303752,397946
1629880755515,99675,303736,397976
1629880755525,99655,303795,397948
1629880755535,99660,303766,397955
1629880755545,99656,303732,397944
1629880755555,99622,303716,397877
1629880755565,99617,303721,397868
1629880755575,99601,303684,397828
1629880755585,99603,303684,397843
1629880755595,99594,303682,397819
1629880755605,99599,303606,397758
1629880755615,99586,303651,397799
1629880755625,99600,303632,397748
1629880755635,99601,303651,397762
1629880755645,99581,303563,397714
1629880755655,99573,303566,397709
1629880755665,99587,303590,397661
1629880755675,99559,303529,397604
1629880755685,99562,303524,397597
1629880755695,99550,303506,397573
1629880755705,99557,303457,397549
1629880755715,99543,303450,397532
1629880755725,99544,303447,397537
1629880755735,99553,303472,397504
1629880755745,99546,303452,397498
1629880755755,99560,303444,397457
1629880755765,99546,303493,397516
1629880755775,99556,303402,397447
1629880755785,99553,303457,397487
1629880755795,99558,303443,397466
1629880755805,99562,303449,397482
1629880755815,99555,303473,397437
1629880755825,99540,303429,397430
1629880755835,99534,303425,397391
1629880755845,99533,303360,397372
1629880755855,99522,303410,397366
1629880755865,99509,303391,397380
1629880755875,99507,303380,397324
1629880755885,99497,303346,397311
1629880755895,99508,303343,397340
1629880755905,99480,303373,397374
1629880755915,99516,303369,397350
1629880755925,99497,303413,397360
1629880755935,99505,303418,397346
1629880755945,99510,303431,397402
1629880755955,99514,303411,397375
1629880755965,99516,303468,397391
1629880755975,99523,303404,397391
1629880755985,99517,303406,397307
1629880755995,99520,303425,397351
1629880756005,99518,303395,397340
1629880756015,99525,303429,397331
1629880756025,99523,303416,397308
1629880756035,99519,303441,397299
1629880756045,99521,303475,397318
1629880756055,99520,303429,397292
1629880756065,99542,303509,397340
1629880756075,99537,303477,397350
1629880756085,99542,303476,397363
1629880756095,99551,303486,397343
1629880756105,99551,303452,397367
1629880756115,99561,303499,397408
1629880756125,99562,303482,397418
1629880756135,99568,303506,397402
1629880756145,99588,303520,397433
