timestamp,green,ir,red
1629880721621,37546,158040,174328
1629880721631,37544,157996,174314
1629880721641,37555,157974,174286
1629880721651,37552,157965,174275
1629880721661,37556,157957,174255
1629880721671,37561,157924,174247
1629880721681,37562,157911,174248
1629880721691,37561,157931,174205
1629880721701,37572,157918,174232
1629880721711,37577,157906,174234
1629880721721,37583,157880,174231
1629880721731,37595,157910,174242
1629880721741,37604,157907,174260
1629880721751,37612,157909,174258
1629880721761,37626,157887,174223
1629880721771,37637,157937,174241
1629880721781,37637,157911,174232
1629880721791,37640,157945,174220
1629880721801,37661,157904,174221
1629880721811,37676,157923,174217
1629880721821,37687,157891,174220
1629880721831,37695,157925,174239
1629880721841,37722,157925,174207
1629880721851,37721,157919,174241
1629880721861,37736,157909,174206
1629880721871,37745,157911,174207
1629880721881,37755,157890,174174
1629880721891,37772,157884,174156
1629880721901,37776,157873,174174
1629880721911,37793,157895,174164
1629880721921,37805,157872,174149
1629880721931,37818,157871,174134
1629880721941,37828,157866,174125
1629880721951,37850,157871,174142
1629880721961,37870,157873,174110
1629880721971,37864,157828,174120
1629880721981,37866,157809,174060
1629880721991,37870,157778,174037
1629880722001,37856,157740,174045
1629880722011,37842,157680,173992
1629880722021,37829,157658,173990
1629880722031,37805,157615,173955
1629880722041,37777,157605,173924
1629880722051,37753,157573,173904
1629880722061,37734,157536,173879
1629880722071,37712,157527,173880
1629880722081,37690,157509,173881
1629880722091,37686,157505,173880
1629880722101,37664,157468,173852
1629880722111,37653,157450,173849
1629880722121,37625,157441,173846
1629880722131,37612,157454,173830
1629880722141,37597,157428,173814
1629880722151,37580,157428,173809
1629880722161,37570,157410,173803
1629880722171,37559,157391,173818
1629880722181,37542,157394,173820
1629880722191,37534,157397,173784
1629880722201,37522,157396,173794
1629880722211,37516,157395,173791
1629880722221,37506,157378,173772
1629880722231,37508,157396,173776
1629880722241,37501,157370,173759
1629880722251,37502,157364,173746
1629880722261,37506,157373,173773
1629880722271,37501,157368,173758
1629880722281,37504,157339,173754
1629880722291,37495,157359,173735
1629880722301,37489,157337,173725
1629880722311,37483,157356,173736
1629880722321,37487,157337,173718
1629880722331,37481,157333,173726
1629880722341,37482,157283,173706
1629880722351,37490,157322,173689
1629880722361,37485,157296,173702
1629880722371,37485,157289,173678
1629880722381,37486,157261,173690
1629880722391,37492,157274,173657
1629880722401,37495,157284,173671
1629880722411,37502,157292,173677
1629880722421,37509,157250,173676
1629880722431,37508,157279,173675
1629880722441,37519,157276,173658
1629880722451,37532,157290,173639
1629880722461,37543,157256,173641
1629880722471,37545,157285,173631
1629880722481,37558,157261,173615
1629880722491,37571,157264,173624
1629880722501,37582,157265,173620
1629880722511,37593,157272,173623
1629880722521,37604,157267,173609
1629880722531,37624,157268,173595
1629880722541,37635,157256,173584
1629880722551,37642,157261,173579
1629880722561,37650,157253,173577
1629880722571,37666,157250,173572
1629880722581,37677,157245,173580
1629880722591,37688,157260,173585
1629880722601,37699,157254,173582
1629880722611,37721,157254,173602
1629880722621,37730,157287,173593
1629880722631,37743,157270,173594
1629880722641,37760,157290,173618
1629880722651,37775,157283,173604
1629880722661,37785,157303,173614
1629880722671,37798,157284,173601
1629880722681,37802,157301,173635
1629880722691,37815,157300,173641
1629880722701,37817,157283,173646
1629880722711,37806,157265,173644
1629880722721,37790,157245,173610
1629880722731,37775,157221,173596
1629880722741,37748,157215,173586
1629880722751,37717,157163,173561
1629880722761,37699,157132,173535
1629880722771,37679,157143,173527
1629880722781,37657,157124,173538
1629880722791,37641,157109,173531
1629880722801,37617,157100,173503
1629880722811,37589,157073,173507
1629880722821,37566,157035,173531
1629880722831,37546,157071,173511
1629880722841,37529,157028,173482
1629880722851,37518,157022,173498
1629880722861,37494,157020,173471
1629880722871,37472,157008,173467
1629880722881,37460,157003,173472
1629880722891,37446,157005,173467
1629880722901,37427,156984,173459
1629880722911,37417,156978,173470
1629880722921,37411,156996,173468
1629880722931,37396,156981,173443
1629880722941,37385,156980,173450
1629880722951,37373,156961,173438
1629880722961,37372,156959,173420
1629880722971,37370,156945,173435
1629880722981,37367,156949,173430
1629880722991,37358,156947,173399
1629880723001,37352,156940,173403
1629880723011,37352,156950,173386
1629880723021,37339,156916,173390
1629880723031,37337,156944,173390
1629880723041,37331,156876,173368
1629880723051,37326,156936,173381
1629880723061,37327,156926,173366
1629880723071,37333,156934,173370
1629880723081,37316,156932,173391
1629880723091,37323,156919,173363
1629880723101,37329,156910,173367
1629880723111,37323,156916,173346
1629880723121,37330,156907,173371
1629880723131,37333,156943,173351
1629880723141,37343,156937,173364
1629880723151,37337,156936,173372
1629880723161,37355,156939,173376
1629880723171,37366,156940,173378
1629880723181,37373,156958,173389
1629880723191,37385,156957,173362
1629880723201,37388,156945,173366
1629880723211,37399,156947,173365
1629880723221,37407,156941,173346
1629880723231,37412,156955,173357
1629880723241,37424,156959,173364
1629880723251,37437,156940,173371
1629880723261,37454,156963,173356
1629880723271,37464,156972,173367
1629880723281,37477,156969,173340
1629880723291,37489,156977,173334
1629880723301,37499,156971,173355
1629880723311,37511,156965,173356
1629880723321,37530,156998,173358
1629880723331,37538,156988,173346
1629880723341,37548,156987,173351
1629880723351,37574,156992,173352
1629880723361,37581,156994,173342
1629880723371,37598,157001,173354
1629880723381,37615,157008,173367
1629880723391,37623,156985,173372
1629880723401,37632,157037,173360
1629880723411,37654,157003,173355
1629880723421,37655,156994,173361
1629880723431,37681,157032,173369
1629880723441,37705,157035,173363
1629880723451,37709,157037,173376
1629880723461,37734,157024,173382
1629880723471,37743,157034,173386
1629880723481,37762,157069,173402
1629880723491,37771,157064,173394
1629880723501,37776,157061,173407
1629880723511,37784,157064,173447
1629880723521,37785,157045,173420
1629880723531,37780,157014,173402
1629880723541,37759,156988,173407
1629880723551,37737,156940,173369
1629880723561,37712,156930,173352
1629880723571,37685,156894,173334
1629880723581,37661,156879,173339
1629880723591,37647,156875,173323
1629880723601,37630,156868,173327
1629880723611,37608,156855,173315
1629880723621,37582,156852,173303
1629880723631,37570,156834,173313
1629880723641,37546,156823,173331
1629880723651,37526,156817,173285
1629880723661,37505,156827,173297
1629880723671,37491,156816,173315
1629880723681,37461,156807,173284
1629880723691,37448,156788,173290
1629880723701,37431,156781,173253
1629880723711,37411,156759,173266
1629880723721,37405,156759,173260
1629880723731,37391,156751,173272
1629880723741,37380,156758,173234
1629880723751,37372,156761,173264
1629880723761,37370,156759,173285
1629880723771,37365,156768,173268
1629880723781,37360,156749,173255
1629880723791,37346,156756,173252
1629880723801,37349,156770,173255
1629880723811,37348,156783,173266
1629880723821,37339,156766,173280
1629880723831,37334,156767,173309
1629880723841,37333,156788,173302
1629880723851,37329,156800,173322
1629880723861,37319,156793,173307
1629880723871,37321,156799,173316
1629880723881,37306,156775,173299
1629880723891,37314,156762,173299
1629880723901,37314,156776,173299
1629880723911,37300,156775,173283
1629880723921,37305,156804,173294
1629880723931,37315,156788,173293
1629880723941,37313,156794,173288
1629880723951,37320,156778,173289
1629880723961,37321,156757,173266
1629880723971,37328,156765,173271
1629880723981,37338,156795,173285
1629880723991,37353,156796,173265
1629880724001,37353,156850,173296
1629880724011,37371,156822,173298
1629880724021,37388,156829,173317
1629880724031,37392,156824,173319
1629880724041,37393,156837,173322
1629880724051,37411,156839,173335
1629880724061,37428,156860,173328
1629880724071,37426,156860,173355
1629880724081,37456,156852,173342
1629880724091,37463,156890,173346
1629880724101,37472,156897,173365
1629880724111,37487,156882,173366
1629880724121,37502,156906,173363
1629880724131,37518,156879,173361
1629880724141,37525,156894,173353
1629880724151,37537,156906,173353
1629880724161,37554,156923,173353
1629880724171,37569,156915,173361
1629880724181,37581,156926,173386
1629880724191,37590,156935,173366
1629880724201,37606,156945,173392
1629880724211,37621,156934,173356
1629880724221,37639,156951,173360
1629880724231,37636,156919,173350
1629880724241,37657,156952,173331
1629880724251,37673,156957,173348
1629880724261,37678,156936,173332
1629880724271,37700,156916,173342
1629880724281,37707,156952,173335
1629880724291,37725,156957,173345
1629880724301,37741,156972,173363
1629880724311,37751,156975,173354
1629880724321,37771,156974,173372
1629880724331,37785,156954,173385
1629880724341,37800,156978,173363
1629880724351,37819,156977,173363
1629880724361,37824,156969,173395
1629880724371,37831,156977,173381
1629880724381,37835,156974,173390
1629880724391,37842,156962,173380
1629880724401,37811,156944,173389
1629880724411,37811,156907,173359
1629880724421,37788,156880,173311
1629880724431,37768,156869,173310
1629880724441,37745,156852,173290
1629880724451,37727,156826,173286
1629880724461,37703,156849,173298
1629880724471,37691,156824,173262
1629880724481,37673,156810,173283
1629880724491,37661,156791,173295
1629880724501,37642,156811,173293
1629880724511,37623,156790,173283
1629880724521,37613,156797,173272
1629880724531,37605,156797,173283
1629880724541,37583,156771,173284
1629880724551,37566,156772,173270
1629880724561,37556,156753,173252
1629880724571,37537,156782,173262
1629880724581,37529,156752,173253
1629880724591,37520,156730,173240
1629880724601,37514,156726,173240
1629880724611,37506,156734,173230
1629880724621,37496,156733,173230
1629880724631,37498,156705,173220
1629880724641,37496,156726,173215
1629880724651,37489,156734,173228
1629880724661,37492,156731,173218
1629880724671,37481,156730,173227
1629880724681,37476,156716,173211
1629880724691,37473,156696,173203
1629880724701,37463,156754,173210
1629880724711,37471,156714,173207
1629880724721,37473,156696,173208
1629880724731,37459,156716,173206
1629880724741,37464,156716,173207
1629880724751,37456,156741,173228
1629880724761,37468,156739,173203
1629880724771,37470,156749,173208
1629880724781,37476,156740,173204
1629880724791,37471,156722,173198
1629880724801,37478,156755,173218
1629880724811,37485,156765,173198
1629880724821,37492,156750,173216
1629880724831,37506,156782,173220
1629880724841,37505,156766,173215
1629880724851,37520,156772,173200
1629880724861,37523,156775,173214
1629880724871,37534,156777,173204
1629880724881,37552,156787,173208
1629880724891,37561,156785,173227
1629880724901,37562,156820,173228
1629880724911,37567,156816,173235
1629880724921,37586,156827,173244
1629880724931,37595,156846,173235
1629880724941,37605,156849,173246
1629880724951,37620,156846,173238
1629880724961,37627,156861,173269
1629880724971,37646,156881,173265
1629880724981,37657,156854,173258
1629880724991,37674,156900,173292
1629880725001,37679,156880,173287
1629880725011,37693,156915,173290
1629880725021,37712,156902,173289
1629880725031,37724,156946,173327
1629880725041,37740,156920,173305
1629880725051,37755,156934,173286
1629880725061,37760,156969,173314
1629880725071,37770,156967,173347
1629880725081,37787,156947,173301
1629880725091,37795,156967,173330
1629880725101,37811,156979,173315
1629880725111,37827,156978,173328
1629880725121,37835,156954,173311
1629880725131,37847,156975,173308
1629880725141,37861,156988,173321
1629880725151,37878,156974,173313
1629880725161,37892,156981,173315
1629880725171,37906,156978,173299
1629880725181,37917,157005,173309
1629880725191,37928,156982,173327
1629880725201,37958,157013,173334
1629880725211,37967,157016,173317
1629880725221,37993,157011,173335
1629880725231,37996,157015,173333
1629880725241,38012,157031,173319
1629880725251,38019,157037,173313
1629880725261,38034,157027,173325
1629880725271,38042,157014,173331
1629880725281,38049,157027,173345
1629880725291,38045,157021,173335
1629880725301,38041,156998,173347
1629880725311,38034,156980,173329
1629880725321,38015,156932,173311
1629880725331,37995,156922,173261
1629880725341,37981,156905,173248
1629880725351,37973,156885,173230
1629880725361,37948,156859,173245
1629880725371,37944,156878,173218
1629880725381,37937,156848,173240
1629880725391,37918,156842,173235
1629880725401,37908,156835,173216
1629880725411,37898,156852,173233
1629880725421,37891,156834,173230
1629880725431,37883,156843,173237
1629880725441,37879,156857,173245
1629880725451,37872,156853,173243
1629880725461,37859,156860,173241
1629880725471,37853,156844,173253
1629880725481,37847,156849,173248
1629880725491,37847,156880,173271
1629880725501,37843,156865,173280
1629880725511,37852,156851,173283
1629880725521,37848,156882,173271
1629880725531,37859,156906,173276
1629880725541,37860,156872,173284
1629880725551,37856,156905,173304
1629880725561,37856,156904,173307
1629880725571,37861,156918,173313
1629880725581,37865,156908,173277
1629880725591,37870,156888,173299
1629880725601,37869,156912,173277
1629880725611,37873,156878,173280
1629880725621,37874,156889,173271
1629880725631,37881,156872,173262
1629880725641,37883,156852,173255
1629880725651,37887,156878,173238
1629880725661,37889,156898,173258
1629880725671,37896,156910,173263
1629880725681,37905,156909,173272
1629880725691,37920,156908,173278
1629880725701,37924,156909,173267
1629880725711,37934,156920,173272
1629880725721,37948,156927,173281
1629880725731,37950,156917,173278
1629880725741,37954,156920,173253
1629880725751,37964,156935,173262
1629880725761,37971,156932,173256
1629880725771,37982,156932,173286
1629880725781,37990,156924,173276
1629880725791,38007,156972,173266
1629880725801,38017,156977,173293
1629880725811,38022,156950,173290
1629880725821,38029,157004,173293
1629880725831,38038,156986,173306
1629880725841,38057,156992,173315
1629880725851,38057,156994,173305
1629880725861,38074,156987,173305
1629880725871,38091,157014,173311
1629880725881,38103,157012,173325
1629880725891,38111,157029,173317
1629880725901,38125,157032,173323
1629880725911,38130,157038,173323
1629880725921,38139,157027,173338
1629880725931,38154,157021,173329
1629880725941,38161,157019,173306
1629880725951,38180,157029,173339
1629880725961,38191,157046,173292
1629880725971,38202,157041,173301
1629880725981,38214,157045,173307
1629880725991,38220,157058,173339
1629880726001,38235,157040,173321
1629880726011,38251,157056,173331
1629880726021,38265,157050,173318
1629880726031,38273,157038,173300
1629880726041,38280,157050,173318
1629880726051,38295,157073,173316
1629880726061,38310,157075,173327
1629880726071,38329,157078,173334
1629880726081,38330,157065,173313
1629880726091,38338,157082,173315
1629880726101,38357,157066,173301
1629880726111,38371,157065,173321
1629880726121,38379,157088,173329
1629880726131,38390,157079,173343
1629880726141,38395,157080,173326
1629880726151,38390,157056,173318
1629880726161,38392,157046,173324
1629880726171,38378,157039,173301
1629880726181,38362,157015,173266
1629880726191,38360,156976,173263
1629880726201,38339,156983,173246
1629880726211,38332,156935,173254
1629880726221,38329,156955,173212
1629880726231,38318,156947,173202
1629880726241,38314,156929,173229
1629880726251,38310,156940,173226
1629880726261,38298,156941,173247
1629880726271,38301,156948,173218
1629880726281,38299,156937,173230
1629880726291,38289,156955,173230
1629880726301,38291,156927,173213
1629880726311,38287,156939,173197
1629880726321,38296,156928,173194
1629880726331,38273,156925,173199
1629880726341,38289,156943,173203
1629880726351,38296,156946,173169
1629880726361,38300,156924,173182
1629880726371,38306,156915,173196
1629880726381,38300,156919,173181
1629880726391,38306,156947,173163
1629880726401,38313,156916,173173
1629880726411,38315,156946,173179
1629880726421,38318,156955,173197
1629880726431,38322,156971,173205
1629880726441,38326,156979,173219
1629880726451,38330,156959,173214
1629880726461,38334,156974,173209
1629880726471,38333,156973,173196
1629880726481,38341,156983,173223
1629880726491,38349,156964,173218
1629880726501,38355,157006,173205
1629880726511,38363,156985,173216
1629880726521,38366,157013,173232
1629880726531,38369,157008,173199
1629880726541,38378,156993,173198
1629880726551,38390,156986,173219
1629880726561,38391,157018,173203
1629880726571,38399,157012,173203
1629880726581,38407,156986,173202
1629880726591,38409,156999,173240
1629880726601,38418,156986,173212
1629880726611,38429,157016,173220
1629880726621,38436,157026,173202
1629880726631,38442,157019,173210
1629880726641,38444,156991,173229
1629880726651,38457,157037,173232
1629880726661,38466,157046,173210
1629880726671,38483,157033,173227
1629880726681,38490,157025,173219
1629880726691,38492,157043,173226
1629880726701,38503,157080,173252
1629880726711,38516,157068,173243
1629880726721,38524,157066,173254
1629880726731,38536,157077,173252
1629880726741,38547,157085,173262
1629880726751,38559,157105,173260
1629880726761,38572,157103,173265
1629880726771,38574,157056,173258
1629880726781,38591,157074,173286
1629880726791,38596,157076,173264
1629880726801,38609,157082,173243
1629880726811,38616,157081,173264
1629880726821,38621,157084,173242
1629880726831,38631,157051,173243
1629880726841,38641,157058,173235
1629880726851,38647,157087,173249
1629880726861,38661,157064,173230
1629880726871,38674,157084,173227
1629880726881,38681,157075,173224
1629880726891,38688,157087,173227
1629880726901,38703,157100,173231
1629880726911,38707,157083,173235
1629880726921,38720,157092,173232
1629880726931,38724,157100,173207
1629880726941,38732,157087,173199
1629880726951,38742,157099,173231
1629880726961,38755,157088,173239
1629880726971,38761,157105,173227
1629880726981,38753,157067,173250
1629880726991,38738,157075,173237
1629880727001,38737,157056,173225
1629880727011,38729,157052,173232
1629880727021,38722,157030,173215
1629880727031,38712,157038,173201
1629880727041,38703,157017,173178
1629880727051,38692,157002,173177
1629880727061,38685,156992,173212
1629880727071,38676,157009,173168
1629880727081,38672,157018,173157
1629880727091,38667,157022,173206
1629880727101,38665,157007,173193
1629880727111,38656,157004,173216
1629880727121,38657,157002,173223
1629880727131,38656,157002,173196
1629880727141,38652,157005,173200
1629880727151,38647,157009,173192
1629880727161,38647,157013,173197
1629880727171,38648,157004,173202
1629880727181,38661,156997,173201
1629880727191,38655,156983,173186
1629880727201,38643,157006,173157
1629880727211,38649,156969,173172
1629880727221,38658,156977,173173
1629880727231,38653,157007,173146
1629880727241,38667,157008,173160
1629880727251,38670,156978,173130
1629880727261,38664,156965,173171
1629880727271,38671,156959,173152
1629880727281,38677,156977,173171
1629880727291,38676,156973,173164
1629880727301,38676,156956,173159
1629880727311,38684,157001,173157
1629880727321,38683,157007,173155
1629880727331,38676,156997,173158
1629880727341,38686,156972,173150
1629880727351,38691,156994,173169
1629880727361,38694,157007,173186
1629880727371,38697,157020,173185
1629880727381,38705,157018,173170
1629880727391,38710,157020,173192
1629880727401,38713,157008,173176
1629880727411,38712,157044,173182
1629880727421,38718,157036,173167
1629880727431,38722,157007,173179
1629880727441,38720,157012,173164
1629880727451,38723,157023,173168
1629880727461,38744,157024,173163
1629880727471,38731,157019,173144
1629880727481,38738,157050,173144
1629880727491,38755,157064,173165
1629880727501,38758,157063,173172
1629880727511,38764,157038,173160
1629880727521,38765,157046,173143
1629880727531,38771,157067,173194
1629880727541,38786,157051,173168
1629880727551,38792,157059,173173
1629880727561,38793,157063,173183
1629880727571,38803,157059,173166
1629880727581,38805,157073,173177
1629880727591,38813,157079,173183
1629880727601,38823,157098,173184
1629880727611,38833,157082,173164
1629880727621,38840,157076,173187
1629880727631,38835,157093,173184
1629880727641,38838,157116,173169
1629880727651,38856,157078,173165
1629880727661,38865,157085,173164
1629880727671,38869,157100,173192
1629880727681,38882,157111,173200
1629880727691,38883,157117,173189
1629880727701,38887,157142,173188
1629880727711,38906,157108,173214
1629880727721,38916,157143,173187
1629880727731,38920,157096,173170
1629880727741,38928,157097,173172
1629880727751,38924,157092,173174
1629880727761,38933,157091,173162
1629880727771,38935,157125,173176
1629880727781,38928,157075,173197
1629880727791,38923,157103,173187
1629880727801,38918,157068,173191
1629880727811,38906,157041,173176
1629880727821,38894,157043,173168
1629880727831,38876,157034,173134
1629880727841,38857,156993,173125
1629880727851,38846,156994,173110
1629880727861,38830,156995,173122
1629880727871,38818,156995,173122
1629880727881,38808,157018,173122
1629880727891,38793,157014,173132
1629880727901,38784,156981,173132
1629880727911,38780,156986,173121
1629880727921,38761,156982,173122
1629880727931,38759,157000,173137
1629880727941,38757,157008,173115
1629880727951,38741,156975,173128
1629880727961,38738,156975,173131
1629880727971,38738,156970,173109
1629880727981,38733,156975,173099
1629880727991,38734,156999,173107
1629880728001,38721,156964,173092
1629880728011,38724,156969,173087
1629880728021,38723,156975,173106
1629880728031,38714,156988,173082
1629880728041,38720,156958,173088
1629880728051,38715,156982,173100
1629880728061,38715,156964,173079
1629880728071,38719,156967,173098
1629880728081,38719,156973,173089
1629880728091,38706,156975,173091
1629880728101,38709,156978,173076
1629880728111,38698,156969,173071
1629880728121,38706,156949,173078
1629880728131,38710,156966,173073
1629880728141,38709,156928,173064
1629880728151,38714,156963,173086
1629880728161,38717,156983,173067
1629880728171,38715,156973,173073
1629880728181,38724,156986,173061
1629880728191,38721,156976,173070
1629880728201,38723,156979,173062
1629880728211,38725,156982,173061
1629880728221,38722,156970,173073
1629880728231,38722,156964,173062
1629880728241,38724,156995,173075
1629880728251,38734,156992,173079
1629880728261,38741,156982,173052
1629880728271,38744,156986,173046
1629880728281,38740,156976,173066
1629880728291,38751,156970,173057
1629880728301,38748,156975,173053
1629880728311,38747,156988,173054
1629880728321,38751,157006,173049
1629880728331,38760,157033,173051
1629880728341,38768,156995,173060
1629880728351,38768,157019,173049
1629880728361,38774,156988,173070
1629880728371,38774,156990,173063
1629880728381,38778,156996,173056
1629880728391,38788,156996,173061
1629880728401,38793,157033,173069
1629880728411,38795,157007,173071
1629880728421,38803,156987,173045
1629880728431,38817,156993,173039
1629880728441,38808,157013,173032
1629880728451,38824,156978,173034
1629880728461,38826,157013,173043
1629880728471,38832,157022,173049
1629880728481,38839,157013,173040
1629880728491,38844,157003,173047
1629880728501,38843,157041,173058
1629880728511,38857,157019,173068
1629880728521,38856,157012,173062
1629880728531,38862,157012,173052
1629880728541,38868,156995,173048
1629880728551,38879,156999,173047
1629880728561,38874,157006,173067
1629880728571,38869,157008,173052
1629880728581,38860,157006,173075
1629880728591,38851,156951,173036
1629880728601,38824,156931,173026
1629880728611,38798,156911,173016
1629880728621,38784,156915,173002
1629880728631,38758,156886,172979
1629880728641,38737,156884,172957
1629880728651,38717,156898,172975
1629880728661,38703,156866,172963
1629880728671,38684,156858,172987
1629880728681,38668,156891,172971
1629880728691,38649,156860,172973
1629880728701,38633,156879,172975
1629880728711,38618,156854,172969
1629880728721,38601,156866,172976
1629880728731,38589,156854,172984
1629880728741,38569,156854,172938
1629880728751,38567,156846,172962
1629880728761,38552,156866,172962
1629880728771,38540,156847,172966
1629880728781,38541,156838,172953
1629880728791,38519,156875,172980
1629880728801,38523,156898,172965
1629880728811,38522,156870,172954
1629880728821,38509,156847,172977
1629880728831,38503,156875,172953
1629880728841,38506,156864,172973
1629880728851,38501,156846,172967
1629880728861,38498,156863,172962
1629880728871,38490,156885,172966
1629880728881,38474,156838,172986
1629880728891,38479,156882,172981
1629880728901,38481,156855,172959
1629880728911,38473,156865,172972
1629880728921,38476,156864,172934
1629880728931,38459,156863,172940
1629880728941,38462,156866,172955
1629880728951,38463,156852,172956
1629880728961,38451,156880,172961
1629880728971,38455,156860,172956
1629880728981,38455,156879,172939
1629880728991,38455,156879,172962
1629880729001,38460,156879,172975
1629880729011,38462,156867,172962
1629880729021,38463,156903,172958
1629880729031,38466,156890,172960
1629880729041,38463,156900,172960
1629880729051,38469,156894,172977
1629880729061,38469,156898,172981
1629880729071,38477,156902,172963
1629880729081,38479,156908,172987
1629880729091,38480,156931,173005
1629880729101,38483,156939,172993
1629880729111,38490,156919,173013
1629880729121,38500,156919,172992
1629880729131,38495,156922,172984
1629880729141,38505,156910,172998
1629880729151,38515,156939,172984
1629880729161,38516,156951,173012
1629880729171,38519,156960,173006
1629880729181,38522,156936,172989
1629880729191,38532,156939,173003
1629880729201,38535,156946,172981
1629880729211,38542,156954,173013
1629880729221,38545,156967,173019
1629880729231,38553,156957,173038
1629880729241,38555,156979,173021
1629880729251,38561,157001,173015
1629880729261,38576,156983,173029
1629880729271,38586,156962,173027
1629880729281,38582,157011,173031
1629880729291,38592,156981,173055
1629880729301,38597,157014,173026
1629880729311,38602,156990,173021
1629880729321,38613,156987,173017
1629880729331,38607,156994,173004
1629880729341,38616,156967,173013
1629880729351,38617,156976,173022
1629880729361,38618,156983,173022
1629880729371,38610,156975,173028
1629880729381,38588,156952,172999
1629880729391,38569,156963,173013
1629880729401,38557,156926,172981
1629880729411,38530,156900,172968
1629880729421,38510,156893,172971
1629880729431,38492,156866,172981
1629880729441,38467,156850,172940
1629880729451,38441,156859,172961
1629880729461,38419,156852,172930
1629880729471,38404,156843,172952
1629880729481,38389,156849,172933
1629880729491,38365,156838,172947
1629880729501,38349,156857,172924
1629880729511,38334,156826,172914
1629880729521,38314,156811,172931
1629880729531,38297,156787,172898
1629880729541,38286,156802,172914
1629880729551,38270,156816,172891
1629880729561,38258,156790,172917
1629880729571,38252,156803,172906
1629880729581,38243,156799,172919
1629880729591,38222,156823,172894
1629880729601,38226,156798,172880
1629880729611,38210,156794,172894
1629880729621,38205,156780,172879
1629880729631,38192,156790,172882
1629880729641,38190,156803,172890
1629880729651,38181,156774,172894
1629880729661,38175,156810,172883
1629880729671,38175,156791,172903
1629880729681,38163,156791,172901
1629880729691,38155,156798,172904
1629880729701,38151,156788,172890
1629880729711,38140,156803,172907
1629880729721,38140,156789,172899
1629880729731,38138,156777,172912
1629880729741,38127,156790,172925
1629880729751,38126,156794,172926
1629880729761,38131,156828,172918
1629880729771,38118,156827,172924
1629880729781,38124,156808,172912
1629880729791,38123,156817,172922
1629880729801,38122,156802,172930
1629880729811,38127,156826,172911
1629880729821,38127,156811,172919
1629880729831,38125,156825,172930
1629880729841,38133,156821,172903
1629880729851,38131,156825,172899
1629880729861,38139,156845,172917
1629880729871,38130,156823,172912
1629880729881,38136,156819,172909
1629880729891,38143,156841,172933
1629880729901,38151,156807,172929
1629880729911,38151,156853,172923
1629880729921,38155,156831,172929
1629880729931,38160,156824,172921
1629880729941,38163,156859,172926
1629880729951,38175,156869,172924
1629880729961,38172,156888,172943
1629880729971,38189,156868,172940
1629880729981,38190,156866,172944
1629880729991,38198,156865,172944
1629880730001,38202,156886,172957
1629880730011,38209,156854,172934
1629880730021,38208,156903,172927
1629880730031,38209,156882,172955
1629880730041,38218,156893,172952
1629880730051,38239,156879,172945
1629880730061,38235,156883,172950
1629880730071,38247,156895,172965
1629880730081,38238,156874,172964
1629880730091,38250,156909,172954
1629880730101,38264,156904,172935
1629880730111,38271,156895,172962
1629880730121,38275,156879,172948
1629880730131,38278,156916,172968
1629880730141,38273,156894,172987
1629880730151,38264,156883,172972
1629880730161,38238,156866,172960
1629880730171,38227,156823,172944
1629880730181,38202,156824,172948
1629880730191,38181,156808,172901
1629880730201,38152,156802,172915
1629880730211,38138,156793,172907
1629880730221,38111,156786,172916
1629880730231,38097,156807,172902
1629880730241,38086,156756,172922
1629880730251,38052,156762,172925
1629880730261,38038,156757,172892
1629880730271,38016,156771,172905
1629880730281,37997,156754,172902
1629880730291,37982,156745,172906
1629880730301,37973,156749,172898
1629880730311,37949,156725,172894
1629880730321,37935,156745,172892
1629880730331,37926,156738,172895
1629880730341,37908,156748,172898
1629880730351,37904,156727,172909
1629880730361,37890,156745,172900
1629880730371,37885,156732,172882
1629880730381,37876,156746,172888
1629880730391,37855,156733,172875
1629880730401,37849,156726,172885
1629880730411,37848,156730,172892
1629880730421,37834,156737,172884
1629880730431,37830,156750,172875
1629880730441,37818,156723,172890
1629880730451,37806,156725,172868
1629880730461,37795,156721,172881
1629880730471,37790,156687,172851
1629880730481,37777,156699,172863
1629880730491,37774,156690,172866
1629880730501,37771,156727,172845
1629880730511,37762,156710,172891
1629880730521,37757,156711,172902
1629880730531,37762,156697,172876
1629880730541,37758,156724,172881
1629880730551,37743,156736,172872
1629880730561,37750,156743,172872
1629880730571,37753,156730,172891
1629880730581,37750,156749,172891
1629880730591,37751,156732,172888
1629880730601,37758,156732,172900
1629880730611,37760,156759,172923
1629880730621,37753,156779,172910
1629880730631,37765,156780,172916
1629880730641,37766,156746,172901
1629880730651,37774,156784,172922
1629880730661,37774,156764,172905
1629880730671,37776,156795,172920
1629880730681,37790,156785,172925
1629880730691,37785,156778,172908
1629880730701,37799,156779,172912
1629880730711,37809,156791,172901
1629880730721,37802,156779,172933
1629880730731,37825,156789,172921
1629880730741,37825,156802,172914
1629880730751,37829,156794,172918
1629880730761,37837,156801,172931
1629880730771,37843,156795,172918
1629880730781,37855,156788,172925
1629880730791,37854,156810,172921
1629880730801,37860,156799,172935
1629880730811,37872,156828,172934
1629880730821,37879,156819,172940
1629880730831,37887,156850,172945
1629880730841,37897,156816,172938
1629880730851,37907,156833,172935
1629880730861,37919,156836,172962
1629880730871,37920,156837,172930
1629880730881,37921,156842,172959
1629880730891,37919,156818,172947
1629880730901,37923,156816,172939
1629880730911,37907,156800,172899
1629880730921,37891,156781,172900
1629880730931,37865,156741,172914
1629880730941,37844,156730,172910
1629880730951,37816,156712,172881
1629880730961,37789,156714,172880
1629880730971,37767,156709,172899
1629880730981,37744,156707,172901
1629880730991,37721,156721,172901
1629880731001,37701,156706,172894
1629880731011,37685,156677,172893
1629880731021,37661,156656,172903
1629880731031,37642,156676,172894
1629880731041,37610,156671,172896
1629880731051,37598,156680,172893
1629880731061,37586,156667,172882
1629880731071,37562,156642,172864
1629880731081,37544,156649,172877
1629880731091,37530,156655,172868
1629880731101,37514,156649,172898
1629880731111,37498,156639,172897
1629880731121,37485,156655,172886
1629880731131,37478,156657,172893
1629880731141,37462,156653,172897
1629880731151,37454,156644,172877
1629880731161,37443,156636,172865
1629880731171,37436,156631,172874
1629880731181,37437,156646,172884
1629880731191,37406,156640,172891
1629880731201,37397,156632,172908
1629880731211,37392,156658,172891
1629880731221,37370,156658,172906
1629880731231,37366,156630,172922
1629880731241,37354,156641,172904
1629880731251,37348,156639,172909
1629880731261,37342,156660,172934
1629880731271,37333,156674,172953
1629880731281,37331,156645,172943
1629880731291,37317,156676,172942
1629880731301,37311,156695,172936
1629880731311,37307,156670,172935
1629880731321,37304,156676,172943
1629880731331,37295,156682,172939
1629880731341,37294,156661,172962
1629880731351,37304,156686,172960
1629880731361,37293,156710,172951
1629880731371,37305,156694,172980
1629880731381,37302,156703,172982
1629880731391,37296,156718,172963
1629880731401,37301,156724,172980
1629880731411,37301,156732,172964
1629880731421,37306,156741,172985
1629880731431,37319,156720,173000
1629880731441,37321,156734,172984
1629880731451,37325,156751,173001
1629880731461,37338,156753,173004
1629880731471,37336,156768,173001
1629880731481,37343,156752,173003
1629880731491,37349,156741,172982
1629880731501,37363,156751,173002
1629880731511,37369,156794,173030
1629880731521,37386,156762,173017
1629880731531,37380,156778,173017
1629880731541,37387,156772,173013
1629880731551,37396,156796,173010
1629880731561,37415,156797,173012
1629880731571,37417,156803,173048
1629880731581,37430,156810,173047
1629880731591,37440,156795,173045
1629880731601,37448,156823,173027
1629880731611,37457,156828,173025
1629880731621,37469,156817,173046
1629880731631,37478,156826,173060
1629880731641,37477,156846,173060
1629880731651,37478,156812,173044
1629880731661,37461,156826,173057
1629880731671,37458,156753,173037
1629880731681,37426,156732,173018
1629880731691,37404,156715,172997
1629880731701,37384,156694,172988
1629880731711,37354,156680,172985
1629880731721,37329,156670,172974
1629880731731,37295,156682,172975
1629880731741,37267,156644,172994
1629880731751,37241,156658,172981
1629880731761,37211,156617,172972
1629880731771,37192,156633,172972
1629880731781,37170,156613,172985
1629880731791,37144,156627,172981
1629880731801,37121,156617,172971
1629880731811,37097,156586,172971
1629880731821,37077,156578,172985
1629880731831,37055,156592,172965
1629880731841,37036,156566,172963
1629880731851,37000,156583,172952
1629880731861,36992,156574,172946
1629880731871,36971,156537,172961
1629880731881,36948,156554,172963
1629880731891,36939,156544,172949
1629880731901,36927,156569,172966
1629880731911,36911,156563,172973
1629880731921,36895,156543,172976
1629880731931,36887,156544,172941
1629880731941,36877,156517,172952
1629880731951,36876,156553,172954
1629880731961,36862,156583,172969
1629880731971,36843,156557,172950
1629880731981,36841,156566,172986
1629880731991,36814,156533,172992
1629880732001,36827,156546,172970
1629880732011,36801,156499,172940
1629880732021,36784,156547,172971
1629880732031,36783,156529,172964
1629880732041,36768,156506,172967
1629880732051,36767,156534,172954
1629880732061,36766,156540,172973
1629880732071,36767,156550,172972
1629880732081,36755,156529,172989
1629880732091,36751,156535,172993
1629880732101,36757,156524,172983
1629880732111,36749,156527,172976
1629880732121,36760,156536,172968
1629880732131,36751,156571,173006
1629880732141,36757,156551,172967
1629880732151,36755,156547,173005
1629880732161,36769,156532,172996
1629880732171,36757,156558,173016
1629880732181,36783,156581,173005
1629880732191,36774,156589,173034
1629880732201,36780,156564,173011
1629880732211,36786,156583,173040
1629880732221,36798,156609,173030
1629880732231,36792,156609,173004
1629880732241,36807,156594,173052
1629880732251,36817,156629,173056
1629880732261,36829,156596,173043
1629880732271,36837,156601,173048
1629880732281,36841,156624,173044
1629880732291,36857,156626,173046
1629880732301,36866,156607,173063
1629880732311,36892,156626,173069
1629880732321,36894,156639,173070
1629880732331,36893,156648,173076
1629880732341,36919,156659,173075
1629880732351,36936,156650,173074
1629880732361,36943,156662,173081
1629880732371,36956,156662,173091
1629880732381,36964,156646,173084
1629880732391,36980,156670,173065
1629880732401,36990,156674,173097
1629880732411,37009,156710,173121
1629880732421,37022,156717,173119
1629880732431,37040,156735,173133
1629880732441,37058,156709,173129
1629880732451,37066,156744,173124
1629880732461,37076,156713,173129
1629880732471,37084,156706,173120
1629880732481,37094,156722,173113
1629880732491,37068,156689,173122
1629880732501,37058,156656,173105
1629880732511,37035,156648,173092
1629880732521,37020,156608,173091
1629880732531,36995,156599,173061
1629880732541,36969,156580,173055
1629880732551,36947,156562,173056
1629880732561,36915,156549,173060
1629880732571,36898,156538,173059
1629880732581,36873,156517,173071
1629880732591,36851,156515,173043
1629880732601,36819,156516,173058
1629880732611,36806,156503,173057
1629880732621,36781,156500,173061
1629880732631,36756,156494,173049
1629880732641,36731,156490,173058
1629880732651,36711,156475,173059
1629880732661,36694,156470,173057
1629880732671,36672,156457,173031
1629880732681,36653,156448,173038
1629880732691,36637,156471,173049
1629880732701,36624,156420,173049
1629880732711,36605,156420,173047
1629880732721,36589,156442,173060
1629880732731,36584,156434,173040
1629880732741,36573,156426,173041
1629880732751,36575,156417,173049
1629880732761,36559,156446,173047
1629880732771,36548,156430,173062
1629880732781,36548,156422,173074
1629880732791,36539,156404,173079
1629880732801,36539,156416,173045
1629880732811,36526,156428,173058
1629880732821,36518,156437,173050
1629880732831,36513,156437,173054
1629880732841,36508,156433,173072
1629880732851,36504,156440,173061
1629880732861,36507,156416,173094
1629880732871,36496,156422,173071
1629880732881,36487,156437,173082
1629880732891,36490,156445,173070
1629880732901,36490,156436,173063
1629880732911,36492,156413,173066
1629880732921,36491,156420,173084
1629880732931,36493,156439,173086
1629880732941,36500,156461,173097
1629880732951,36515,156436,173078
1629880732961,36500,156446,173108
1629880732971,36514,156465,173125
1629880732981,36521,156460,173120
1629880732991,36512,156481,173125
1629880733001,36533,156466,173100
1629880733011,36532,156470,173106
1629880733021,36542,156475,173124
1629880733031,36557,156491,173142
1629880733041,36556,156481,173151
1629880733051,36577,156518,173147
1629880733061,36588,156505,173154
1629880733071,36584,156527,173140
1629880733081,36595,156513,173145
1629880733091,36616,156516,173164
1629880733101,36616,156522,173182
1629880733111,36633,156508,173171
1629880733121,36645,156546,173179
1629880733131,36646,156566,173150
1629880733141,36667,156549,173167
1629880733151,36682,156567,173192
1629880733161,36691,156568,173188
1629880733171,36709,156567,173193
1629880733181,36724,156581,173197
1629880733191,36740,156589,173197
1629880733201,36749,156602,173226
1629880733211,36767,156619,173218
1629880733221,36781,156609,173224
1629880733231,36795,156631,173213
1629880733241,36820,156650,173227
1629880733251,36834,156644,173263
1629880733261,36848,156658,173254
1629880733271,36867,156650,173248
1629880733281,36875,156688,173265
1629880733291,36895,156704,173273
1629880733301,36925,156677,173278
1629880733311,36928,156709,173309
1629880733321,36946,156730,173306
1629880733331,36969,156750,173318
1629880733341,36990,156753,173318
1629880733351,37004,156759,173325
1629880733361,37027,156776,173336
1629880733371,37047,156767,173326
1629880733381,37066,156799,173350
1629880733391,37094,156809,173364
1629880733401,37104,156791,173374
1629880733411,37121,156803,173359
1629880733421,37146,156808,173367
1629880733431,37161,156829,173365
1629880733441,37182,156821,173377
1629880733451,37204,156841,173363
1629880733461,37229,156835,173394
1629880733471,37236,156852,173390
1629880733481,37253,156857,173385
1629880733491,37278,156866,173405
1629880733501,37299,156871,173418
1629880733511,37324,156898,173427
1629880733521,37349,156864,173425
1629880733531,37359,156895,173443
1629880733541,37379,156880,173433
1629880733551,37408,156893,173413
1629880733561,37417,156885,173427
1629880733571,37435,156913,173457
1629880733581,37461,156914,173435
1629880733591,37482,156932,173444
1629880733601,37500,156919,173448
1629880733611,37515,156926,173469
1629880733621,37533,156923,173454
1629880733631,37556,156936,173454
1629880733641,37571,156942,173473
1629880733651,37598,156945,173466
1629880733661,37618,156958,173480
1629880733671,37636,156981,173503
1629880733681,37657,156988,173501
1629880733691,37681,156994,173518
1629880733701,37695,157004,173529
1629880733711,37722,157030,173530
1629880733721,37738,157020,173552
1629880733731,37765,157053,173555
1629880733741,37780,157054,173539
1629880733751,37803,157049,173531
1629880733761,37810,157048,173536
1629880733771,37819,157026,173549
1629880733781,37814,157009,173543
1629880733791,37828,157010,173536
1629880733801,37819,156994,173541
1629880733811,37808,156964,173524
1629880733821,37793,156936,173519
1629880733831,37787,156923,173498
1629880733841,37779,156913,173485
1629880733851,37771,156896,173487
1629880733861,37759,156914,173498
1629880733871,37749,156893,173498
1629880733881,37745,156891,173492
1629880733891,37732,156884,173465
1629880733901,37731,156876,173492
1629880733911,37722,156869,173507
1629880733921,37713,156886,173500
1629880733931,37704,156861,173506
1629880733941,37693,156862,173511
1629880733951,37680,156875,173505
1629880733961,37683,156887,173521
1629880733971,37663,156873,173517
1629880733981,37659,156859,173514
1629880733991,37646,156868,173502
1629880734001,37642,156856,173505
1629880734011,37641,156860,173503
1629880734021,37637,156854,173499
1629880734031,37628,156868,173513
1629880734041,37628,156879,173526
1629880734051,37622,156853,173511
1629880734061,37623,156860,173498
1629880734071,37625,156851,173507
1629880734081,37626,156845,173500
1629880734091,37621,156867,173532
1629880734101,37615,156854,173509
1629880734111,37612,156869,173501
1629880734121,37611,156849,173483
1629880734131,37605,156850,173508
1629880734141,37618,156862,173520
1629880734151,37605,156860,173530
1629880734161,37619,156863,173506
1629880734171,37617,156870,173532
1629880734181,37620,156843,173510
1629880734191,37624,156868,173541
1629880734201,37626,156868,173539
1629880734211,37632,156880,173536
1629880734221,37631,156890,173540
1629880734231,37644,156890,173556
1629880734241,37650,156888,173534
1629880734251,37653,156900,173534
1629880734261,37663,156891,173518
1629880734271,37664,156904,173541
1629880734281,37674,156906,173561
1629880734291,37689,156913,173544
1629880734301,37692,156898,173546
1629880734311,37694,156895,173552
1629880734321,37709,156928,173569
1629880734331,37724,156932,173573
1629880734341,37730,156921,173583
1629880734351,37743,156921,173591
1629880734361,37756,156944,173553
1629880734371,37760,156969,173586
1629880734381,37777,156971,173566
1629880734391,37783,156957,173596
1629880734401,37797,156964,173605
1629880734411,37810,157001,173594
1629880734421,37825,157008,173606
1629880734431,37827,156992,173613
1629880734441,37851,156983,173600
1629880734451,37853,157000,173606
1629880734461,37876,157027,173631
1629880734471,37885,157036,173603
1629880734481,37897,156994,173621
1629880734491,37911,157027,173633
1629880734501,37925,157028,173618
1629880734511,37936,157039,173613
1629880734521,37955,157053,173638
1629880734531,37971,157020,173639
1629880734541,37983,157042,173630
1629880734551,38000,157056,173628
1629880734561,38015,157060,173628
1629880734571,38028,157055,173631
1629880734581,38058,157077,173657
1629880734591,38059,157055,173658
1629880734601,38079,157084,173660
1629880734611,38092,157100,173654
1629880734621,38093,157092,173675
1629880734631,38117,157113,173680
1629880734641,38137,157105,173688
1629880734651,38151,157110,173684
1629880734661,38163,157140,173688
1629880734671,38183,157136,173709
1629880734681,38197,157144,173682
1629880734691,38210,157144,173707
1629880734701,38216,157167,173708
1629880734711,38244,157164,173707
1629880734721,38261,157179,173715
1629880734731,38270,157167,173712
1629880734741,38273,157168,173734
1629880734751,38308,157185,173699
1629880734761,38316,157203,173690
1629880734771,38321,157209,173730
1629880734781,38331,157214,173725
1629880734791,38361,157219,173718
1629880734801,38377,157205,173698
1629880734811,38390,157202,173704
1629880734821,38404,157204,173727
1629880734831,38420,157199,173735
1629880734841,38436,157236,173726
1629880734851,38450,157243,173741
1629880734861,38472,157258,173781
1629880734871,38484,157255,173768
1629880734881,38497,157273,173766
1629880734891,38515,157264,173773
1629880734901,38534,157295,173799
1629880734911,38549,157294,173790
1629880734921,38558,157313,173778
1629880734931,38575,157303,173800
1629880734941,38591,157284,173786
1629880734951,38610,157317,173769
1629880734961,38616,157316,173798
1629880734971,38634,157295,173781
1629880734981,38643,157324,173787
1629880734991,38650,157288,173833
1629880735001,38646,157285,173797
1629880735011,38644,157287,173790
1629880735021,38631,157272,173790
1629880735031,38626,157256,173773
1629880735041,38621,157236,173749
1629880735051,38620,157207,173770
1629880735061,38609,157204,173729
1629880735071,38600,157204,173763
1629880735081,38611,157221,173762
1629880735091,38599,157223,173765
1629880735101,38600,157230,173789
1629880735111,38606,157237,173801
1629880735121,38597,157236,173791
1629880735131,38587,157237,173816
1629880735141,38591,157231,173789
1629880735151,38592,157238,173802
1629880735161,38585,157235,173789
1629880735171,38582,157222,173797
1629880735181,38573,157228,173801
1629880735191,38572,157230,173817
1629880735201,38571,157212,173790
1629880735211,38567,157219,173797
1629880735221,38562,157227,173791
1629880735231,38567,157202,173799
1629880735241,38557,157219,173802
1629880735251,38561,157203,173781
1629880735261,38573,157213,173794
1629880735271,38558,157221,173781
1629880735281,38571,157229,173778
1629880735291,38562,157222,173785
1629880735301,38565,157217,173800
1629880735311,38562,157209,173802
1629880735321,38571,157252,173813
1629880735331,38566,157229,173805
1629880735341,38569,157247,173808
1629880735351,38569,157229,173822
1629880735361,38569,157215,173796
1629880735371,38573,157252,173791
1629880735381,38567,157234,173816
1629880735391,38567,157245,173826
1629880735401,38579,157232,173824
1629880735411,38578,157247,173838
1629880735421,38580,157275,173806
1629880735431,38589,157257,173824
1629880735441,38597,157264,173826
1629880735451,38601,157259,173825
1629880735461,38603,157286,173832
1629880735471,38611,157278,173839
1629880735481,38614,157272,173819
1629880735491,38621,157292,173820
1629880735501,38631,157289,173831
1629880735511,38638,157298,173848
1629880735521,38650,157333,173833
1629880735531,38660,157331,173845
1629880735541,38659,157309,173855
1629880735551,38670,157354,173850
1629880735561,38682,157339,173842
1629880735571,38690,157309,173850
1629880735581,38715,157373,173861
1629880735591,38711,157354,173861
1629880735601,38724,157352,173879
1629880735611,38728,157380,173882
1629880735621,38749,157376,173894
1629880735631,38759,157392,173883
1629880735641,38772,157397,173873
1629880735651,38784,157394,173889
1629880735661,38794,157397,173873
1629880735671,38800,157415,173879
1629880735681,38818,157398,173887
1629880735691,38824,157422,173899
1629880735701,38839,157409,173878
1629880735711,38847,157414,173907
1629880735721,38851,157398,173885
1629880735731,38862,157406,173893
1629880735741,38873,157443,173890
1629880735751,38894,157421,173882
1629880735761,38916,157431,173873
1629880735771,38921,157442,173904
1629880735781,38931,157443,173914
1629880735791,38940,157417,173879
1629880735801,38946,157469,173896
1629880735811,38962,157451,173900
1629880735821,38978,157455,173903
1629880735831,38990,157474,173913
1629880735841,39010,157482,173925
1629880735851,39015,157458,173920
1629880735861,39032,157468,173929
1629880735871,39040,157470,173915
1629880735881,39053,157478,173921
1629880735891,39065,157500,173897
1629880735901,39081,157475,173933
1629880735911,39089,157498,173945
1629880735921,39110,157508,173913
1629880735931,39112,157523,173914
1629880735941,39126,157500,173923
1629880735951,39141,157487,173931
1629880735961,39152,157517,173923
1629880735971,39164,157525,173961
1629880735981,39180,157518,173925
1629880735991,39197,157528,173955
1629880736001,39208,157553,173935
1629880736011,39220,157539,173923
1629880736021,39237,157543,173940
1629880736031,39242,157515,173932
1629880736041,39256,157541,173922
1629880736051,39267,157546,173932
1629880736061,39276,157571,173936
1629880736071,39294,157566,173966
1629880736081,39301,157545,173954
1629880736091,39298,157551,173959
1629880736101,39293,157540,173949
1629880736111,39289,157519,173924
1629880736121,39276,157520,173950
1629880736131,39269,157478,173924
1629880736141,39273,157478,173909
1629880736151,39267,157465,173915
1629880736161,39264,157474,173921
1629880736171,39260,157471,173923
1629880736181,39260,157487,173929
1629880736191,39254,157475,173917
1629880736201,39253,157476,173925
1629880736211,39245,157480,173943
1629880736221,39249,157480,173915
1629880736231,39249,157475,173929
1629880736241,39231,157473,173940
1629880736251,39241,157460,173928
1629880736261,39237,157466,173932
1629880736271,39237,157449,173909
1629880736281,39240,157466,173947
1629880736291,39230,157483,173917
1629880736301,39229,157478,173926
1629880736311,39236,157495,173908
1629880736321,39236,157481,173931
1629880736331,39233,157491,173939
1629880736341,39233,157487,173931
1629880736351,39234,157479,173926
1629880736361,39244,157504,173938
1629880736371,39241,157475,173944
1629880736381,39238,157490,173926
1629880736391,39245,157488,173948
1629880736401,39257,157499,173945
1629880736411,39245,157489,173933
1629880736421,39255,157487,173952
1629880736431,39258,157504,173933
1629880736441,39256,157499,173939
1629880736451,39257,157527,173932
1629880736461,39263,157506,173929
1629880736471,39265,157504,173949
1629880736481,39274,157498,173941
1629880736491,39279,157511,173962
1629880736501,39283,157520,173954
1629880736511,39284,157530,173951
1629880736521,39297,157548,173946
1629880736531,39301,157567,173937
1629880736541,39318,157530,173955
1629880736551,39317,157540,173952
1629880736561,39337,157558,173961
1629880736571,39342,157565,173955
1629880736581,39339,157551,173960
1629880736591,39351,157550,173950
1629880736601,39355,157543,173950
1629880736611,39362,157562,173946
1629880736621,39375,157587,173942
1629880736631,39387,157572,173970
1629880736641,39395,157571,173976
1629880736651,39401,157602,173967
1629880736661,39405,157588,173943
1629880736671,39421,157576,173988
1629880736681,39426,157590,173969
1629880736691,39434,157598,173967
1629880736701,39447,157600,173999
1629880736711,39454,157631,173987
1629880736721,39469,157596,173961
1629880736731,39478,157609,173963
1629880736741,39492,157614,173955
1629880736751,39490,157650,173973
1629880736761,39500,157619,173977
1629880736771,39515,157622,173963
1629880736781,39525,157642,173978
1629880736791,39533,157643,173989
1629880736801,39545,157633,173964
1629880736811,39555,157639,173988
1629880736821,39564,157660,173983
1629880736831,39574,157634,173973
1629880736841,39585,157651,173982
1629880736851,39601,157649,173983
1629880736861,39600,157655,173985
1629880736871,39614,157651,173986
1629880736881,39639,157652,173979
1629880736891,39638,157662,173972
1629880736901,39649,157676,173968
1629880736911,39662,157672,173984
1629880736921,39669,157677,173994
1629880736931,39672,157670,173991
1629880736941,39686,157680,173994
1629880736951,39700,157700,173997
1629880736961,39711,157703,174013
1629880736971,39724,157714,174000
1629880736981,39739,157758,174006
1629880736991,39742,157738,174016
1629880737001,39759,157723,174005
1629880737011,39766,157738,173996
1629880737021,39762,157725,174014
1629880737031,39790,157725,174025
1629880737041,39798,157751,173999
1629880737051,39801,157757,174000
1629880737061,39804,157762,174008
1629880737071,39821,157749,174014
1629880737081,39824,157743,174017
1629880737091,39830,157729,173993
1629880737101,39833,157717,174020
1629880737111,39820,157727,174019
1629880737121,39811,157726,174010
1629880737131,39808,157692,173998
1629880737141,39803,157711,173981
1629880737151,39807,157662,173985
1629880737161,39798,157695,173985
1629880737171,39791,157691,173981
1629880737181,39793,157693,174016
1629880737191,39794,157698,173998
1629880737201,39802,157677,173997
1629880737211,39790,157687,173980
1629880737221,39784,157677,173992
1629880737231,39785,157659,173976
1629880737241,39787,157659,173969
1629880737251,39783,157664,173966
1629880737261,39777,157660,173959
1629880737271,39770,157666,173953
1629880737281,39771,157630,173945
1629880737291,39769,157663,173953
1629880737301,39770,157660,173951
1629880737311,39784,157659,173945
1629880737321,39779,157669,173962
1629880737331,39780,157650,173955
1629880737341,39782,157647,173922
1629880737351,39780,157653,173939
1629880737361,39781,157667,173945
1629880737371,39787,157661,173914
1629880737381,39786,157633,173929
1629880737391,39791,157648,173929
1629880737401,39801,157647,173936
1629880737411,39798,157645,173916
1629880737421,39802,157675,173942
1629880737431,39804,157656,173919
1629880737441,39806,157658,173946
1629880737451,39807,157662,173929
1629880737461,39817,157670,173928
1629880737471,39822,157664,173929
1629880737481,39821,157657,173937
1629880737491,39833,157648,173930
1629880737501,39835,157686,173936
1629880737511,39844,157666,173930
1629880737521,39845,157679,173940
1629880737531,39851,157686,173939
1629880737541,39856,157707,173937
1629880737551,39868,157714,173958
1629880737561,39869,157692,173941
1629880737571,39877,157713,173952
1629880737581,39882,157711,173941
1629880737591,39884,157714,173942
1629880737601,39896,157729,173925
1629880737611,39895,157716,173941
1629880737621,39911,157722,173937
1629880737631,39912,157690,173933
1629880737641,39920,157696,173928
1629880737651,39928,157715,173927
1629880737661,39941,157719,173932
1629880737671,39933,157722,173931
1629880737681,39950,157723,173931
1629880737691,39952,157713,173956
1629880737701,39976,157749,173923
1629880737711,39971,157721,173941
1629880737721,39977,157715,173925
1629880737731,39986,157720,173928
1629880737741,39991,157721,173918
1629880737751,39999,157724,173908
1629880737761,40003,157731,173919
1629880737771,40013,157709,173900
1629880737781,40013,157735,173931
1629880737791,40027,157736,173907
1629880737801,40034,157723,173908
1629880737811,40040,157744,173920
1629880737821,40051,157730,173904
1629880737831,40055,157743,173900
1629880737841,40069,157721,173910
1629880737851,40075,157713,173884
1629880737861,40082,157728,173892
1629880737871,40081,157736,173869
1629880737881,40087,157727,173885
1629880737891,40099,157758,173889
1629880737901,40105,157746,173886
1629880737911,40111,157742,173896
1629880737921,40123,157765,173903
1629880737931,40133,157768,173917
1629880737941,40137,157769,173913
1629880737951,40150,157764,173876
1629880737961,40156,157782,173893
1629880737971,40155,157757,173886
1629880737981,40168,157753,173903
1629880737991,40181,157781,173878
1629880738001,40172,157781,173892
1629880738011,40198,157769,173897
1629880738021,40210,157754,173904
1629880738031,40208,157766,173905
1629880738041,40202,157761,173898
1629880738051,40201,157753,173901
1629880738061,40199,157752,173901
1629880738071,40192,157721,173892
1629880738081,40183,157745,173894
1629880738091,40180,157703,173880
1629880738101,40183,157720,173874
1629880738111,40174,157732,173841
1629880738121,40170,157725,173851
1629880738131,40177,157713,173874
1629880738141,40170,157723,173887
1629880738151,40164,157699,173868
1629880738161,40159,157695,173846
1629880738171,40161,157704,173873
1629880738181,40159,157695,173853
1629880738191,40154,157707,173868
1629880738201,40151,157716,173871
1629880738211,40149,157684,173853
1629880738221,40154,157699,173855
1629880738231,40159,157704,173856
1629880738241,40149,157696,173869
1629880738251,40156,157699,173870
1629880738261,40160,157697,173877
1629880738271,40164,157707,173863
1629880738281,40157,157714,173845
1629880738291,40157,157684,173846
1629880738301,40168,157701,173853
1629880738311,40161,157708,173846
1629880738321,40166,157695,173848
1629880738331,40182,157720,173842
1629880738341,40173,157719,173844
1629880738351,40184,157728,173885
1629880738361,40177,157727,173867
1629880738371,40165,157717,173871
1629880738381,40190,157720,173862
1629880738391,40188,157701,173850
1629880738401,40190,157709,173834
1629880738411,40191,157702,173834
1629880738421,40198,157711,173850
1629880738431,40202,157715,173856
1629880738441,40205,157710,173828
1629880738451,40214,157712,173836
1629880738461,40217,157722,173826
1629880738471,40218,157716,173830
1629880738481,40233,157693,173840
1629880738491,40217,157717,173831
1629880738501,40235,157739,173823
1629880738511,40241,157718,173832
1629880738521,40248,157717,173825
1629880738531,40247,157726,173841
1629880738541,40257,157737,173824
1629880738551,40259,157709,173795
1629880738561,40262,157756,173812
1629880738571,40267,157742,173825
1629880738581,40276,157730,173813
1629880738591,40280,157725,173802
1629880738601,40285,157745,173808
1629880738611,40298,157718,173813
1629880738621,40300,157736,173806
1629880738631,40311,157738,173816
1629880738641,40320,157737,173840
1629880738651,40324,157737,173822
1629880738661,40319,157747,173815
1629880738671,40326,157735,173818
1629880738681,40334,157744,173833
1629880738691,40347,157754,173830
1629880738701,40349,157753,173814
1629880738711,40355,157784,173819
1629880738721,40364,157768,173813
1629880738731,40373,157750,173813
1629880738741,40376,157773,173811
1629880738751,40391,157774,173836
1629880738761,40391,157757,173806
1629880738771,40392,157767,173798
1629880738781,40406,157775,173789
1629880738791,40407,157775,173800
1629880738801,40406,157772,173784
1629880738811,40413,157766,173793
1629880738821,40438,157771,173788
1629880738831,40425,157775,173802
1629880738841,40431,157759,173808
1629880738851,40442,157776,173789
1629880738861,40445,157760,173800
1629880738871,40450,157768,173812
1629880738881,40453,157771,173815
1629880738891,40448,157799,173814
1629880738901,40449,157755,173788
1629880738911,40447,157751,173808
1629880738921,40429,157751,173805
1629880738931,40427,157740,173771
1629880738941,40418,157742,173778
1629880738951,40415,157721,173801
1629880738961,40407,157722,173785
1629880738971,40410,157729,173787
1629880738981,40401,157717,173778
1629880738991,40395,157729,173759
1629880739001,40390,157726,173773
1629880739011,40387,157713,173754
1629880739021,40381,157697,173758
1629880739031,40382,157711,173740
1629880739041,40385,157717,173762
1629880739051,40372,157706,173755
1629880739061,40371,157702,173734
1629880739071,40364,157707,173757
1629880739081,40365,157700,173744
1629880739091,40369,157710,173768
1629880739101,40376,157712,173750
1629880739111,40366,157724,173747
1629880739121,40368,157715,173755
1629880739131,40362,157710,173727
1629880739141,40367,157721,173732
1629880739151,40368,157711,173744
1629880739161,40372,157713,173752
1629880739171,40376,157727,173749
1629880739181,40374,157715,173779
1629880739191,40370,157729,173756
1629880739201,40372,157736,173759
1629880739211,40370,157740,173766
1629880739221,40373,157734,173760
1629880739231,40378,157709,173763
1629880739241,40369,157694,173752
1629880739251,40374,157717,173750
1629880739261,40377,157722,173745
1629880739271,40382,157712,173759
1629880739281,40385,157724,173743
1629880739291,40388,157730,173752
1629880739301,40389,157730,173748
1629880739311,40393,157707,173741
1629880739321,40393,157720,173759
1629880739331,40400,157697,173731
1629880739341,40399,157712,173728
1629880739351,40407,157723,173747
1629880739361,40416,157728,173723
1629880739371,40416,157708,173761
1629880739381,40419,157732,173752
1629880739391,40423,157746,173767
1629880739401,40419,157749,173736
1629880739411,40438,157753,173739
1629880739421,40435,157750,173754
1629880739431,40439,157733,173749
1629880739441,40447,157768,173746
1629880739451,40442,157769,173739
1629880739461,40441,157744,173728
1629880739471,40457,157764,173727
1629880739481,40461,157772,173747
1629880739491,40454,157742,173735
1629880739501,40466,157758,173760
1629880739511,40475,157776,173744
1629880739521,40481,157776,173735
1629880739531,40477,157777,173754
1629880739541,40487,157772,173728
1629880739551,40489,157773,173720
1629880739561,40495,157766,173749
1629880739571,40499,157786,173747
1629880739581,40504,157769,173724
1629880739591,40513,157785,173738
1629880739601,40523,157794,173745
1629880739611,40526,157788,173755
1629880739621,40523,157778,173743
1629880739631,40521,157822,173747
1629880739641,40541,157813,173773
1629880739651,40537,157809,173768
1629880739661,40552,157800,173747
1629880739671,40547,157782,173752
1629880739681,40554,157810,173753
1629880739691,40560,157785,173784
1629880739701,40562,157785,173767
1629880739711,40550,157802,173768
1629880739721,40541,157784,173782
1629880739731,40526,157770,173767
1629880739741,40514,157724,173728
1629880739751,40506,157743,173726
1629880739761,40491,157718,173726
1629880739771,40484,157724,173715
1629880739781,40472,157720,173716
1629880739791,40458,157713,173709
1629880739801,40445,157695,173695
1629880739811,40430,157713,173715
1629880739821,40425,157682,173699
1629880739831,40403,157684,173686
1629880739841,40395,157691,173702
1629880739851,40380,157699,173692
1629880739861,40376,157676,173671
1629880739871,40361,157678,173683
1629880739881,40355,157652,173668
1629880739891,40336,157662,173664
1629880739901,40323,157653,173686
1629880739911,40317,157647,173674
1629880739921,40307,157638,173660
1629880739931,40298,157633,173658
1629880739941,40293,157668,173666
1629880739951,40277,157649,173658
1629880739961,40271,157643,173661
1629880739971,40266,157638,173655
1629880739981,40248,157667,173651
1629880739991,40247,157616,173645
1629880740001,40232,157656,173650
1629880740011,40230,157664,173661
1629880740021,40222,157627,173661
1629880740031,40210,157654,173656
1629880740041,40202,157635,173665
1629880740051,40199,157654,173658
1629880740061,40192,157642,173639
1629880740071,40180,157613,173648
1629880740081,40172,157626,173644
1629880740091,40170,157631,173641
1629880740101,40173,157622,173629
1629880740111,40166,157640,173657
1629880740121,40146,157648,173646
1629880740131,40156,157612,173634
1629880740141,40153,157646,173634
1629880740151,40145,157634,173650
1629880740161,40144,157640,173617
1629880740171,40145,157644,173643
1629880740181,40144,157644,173649
1629880740191,40143,157667,173624
1629880740201,40140,157661,173637
1629880740211,40143,157660,173629
1629880740221,40146,157673,173632
1629880740231,40149,157643,173648
1629880740241,40159,157665,173651
1629880740251,40154,157670,173635
1629880740261,40155,157657,173623
1629880740271,40170,157656,173673
1629880740281,40154,157660,173635
1629880740291,40170,157691,173643
1629880740301,40164,157673,173636
1629880740311,40172,157669,173638
1629880740321,40168,157707,173662
1629880740331,40172,157668,173652
1629880740341,40174,157696,173626
1629880740351,40184,157672,173626
1629880740361,40185,157703,173628
1629880740371,40178,157680,173639
1629880740381,40189,157680,173646
1629880740391,40188,157688,173628
1629880740401,40187,157697,173647
1629880740411,40205,157694,173618
1629880740421,40204,157708,173646
1629880740431,40203,157719,173624
1629880740441,40215,157698,173642
1629880740451,40217,157734,173626
1629880740461,40222,157691,173639
1629880740471,40226,157706,173634
1629880740481,40227,157724,173662
1629880740491,40238,157718,173620
1629880740501,40234,157711,173623
1629880740511,40236,157707,173628
1629880740521,40230,157714,173637
1629880740531,40227,157714,173643
1629880740541,40222,157700,173656
1629880740551,40199,157695,173655
1629880740561,40183,157675,173624
1629880740571,40168,157667,173601
1629880740581,40142,157644,173617
1629880740591,40137,157622,173578
1629880740601,40120,157604,173592
1629880740611,40096,157595,173565
1629880740621,40068,157592,173562
1629880740631,40050,157601,173574
1629880740641,40030,157573,173570
1629880740651,40013,157574,173578
1629880740661,39996,157568,173566
1629880740671,39977,157570,173565
1629880740681,39951,157552,173556
1629880740691,39930,157553,173532
1629880740701,39912,157551,173553
1629880740711,39891,157532,173539
1629880740721,39867,157531,173524
1629880740731,39856,157520,173513
1629880740741,39837,157502,173532
1629880740751,39814,157531,173517
1629880740761,39793,157504,173515
1629880740771,39782,157503,173545
1629880740781,39763,157546,173506
1629880740791,39750,157507,173498
1629880740801,39733,157523,173485
1629880740811,39714,157461,173502
1629880740821,39705,157476,173470
1629880740831,39690,157470,173471
1629880740841,39675,157467,173469
1629880740851,39661,157474,173480
1629880740861,39638,157479,173481
1629880740871,39620,157471,173476
1629880740881,39615,157476,173469
1629880740891,39596,157466,173470
1629880740901,39583,157478,173493
1629880740911,39568,157454,173470
1629880740921,39559,157466,173467
1629880740931,39551,157456,173477
1629880740941,39534,157465,173466
1629880740951,39526,157442,173477
1629880740961,39515,157456,173457
1629880740971,39502,157467,173463
1629880740981,39499,157465,173448
1629880740991,39487,157472,173460
1629880741001,39483,157462,173446
1629880741011,39470,157464,173460
1629880741021,39472,157454,173439
1629880741031,39471,157467,173461
1629880741041,39466,157466,173453
1629880741051,39459,157473,173468
1629880741061,39464,157489,173458
1629880741071,39465,157478,173461
1629880741081,39462,157461,173468
1629880741091,39466,157485,173439
1629880741101,39461,157486,173470
1629880741111,39454,157459,173458
1629880741121,39466,157504,173482
1629880741131,39465,157502,173471
1629880741141,39475,157513,173458
1629880741151,39481,157493,173486
1629880741161,39481,157522,173481
1629880741171,39479,157521,173479
1629880741181,39482,157512,173494
1629880741191,39488,157544,173467
1629880741201,39485,157503,173503
1629880741211,39492,157528,173477
1629880741221,39495,157505,173480
1629880741231,39498,157501,173477
1629880741241,39500,157512,173480
1629880741251,39504,157514,173498
1629880741261,39509,157516,173474
1629880741271,39501,157520,173492
1629880741281,39514,157524,173466
1629880741291,39519,157557,173484
1629880741301,39532,157568,173507
1629880741311,39535,157572,173496
1629880741321,39535,157566,173487
1629880741331,39536,157575,173475
1629880741341,39553,157553,173515
1629880741351,39549,157577,173475
1629880741361,39567,157549,173510
1629880741371,39560,157570,173514
1629880741381,39573,157574,173524
1629880741391,39582,157573,173495
1629880741401,39582,157565,173499
1629880741411,39572,157547,173495
1629880741421,39572,157560,173504
1629880741431,39566,157514,173500
1629880741441,39548,157534,173486
1629880741451,39523,157518,173472
1629880741461,39501,157474,173447
1629880741471,39480,157477,173435
1629880741481,39458,157464,173439
1629880741491,39440,157462,173410
1629880741501,39421,157425,173406
1629880741511,39390,157419,173408
1629880741521,39378,157429,173428
1629880741531,39348,157399,173404
1629880741541,39324,157410,173402
1629880741551,39289,157409,173418
1629880741561,39283,157419,173398
1629880741571,39255,157380,173409
1629880741581,39237,157384,173404
1629880741591,39213,157375,173384
1629880741601,39188,157375,173387
1629880741611,39164,157359,173381
1629880741621,39144,157353,173373
1629880741631,39120,157320,173387
1629880741641,39101,157340,173371
1629880741651,39078,157304,173357
1629880741661,39064,157327,173367
1629880741671,39047,157310,173365
1629880741681,39026,157288,173344
1629880741691,39007,157318,173334
1629880741701,38997,157325,173335
1629880741711,38982,157297,173330
1629880741721,38967,157272,173330
1629880741731,38949,157298,173349
1629880741741,38930,157302,173329
1629880741751,38916,157312,173354
1629880741761,38900,157308,173339
1629880741771,38878,157278,173337
1629880741781,38868,157275,173337
1629880741791,38853,157289,173333
1629880741801,38838,157265,173342
1629880741811,38825,157264,173337
1629880741821,38816,157281,173319
1629880741831,38801,157267,173308
1629880741841,38783,157273,173322
1629880741851,38781,157271,173310
1629880741861,38770,157255,173314
1629880741871,38766,157254,173333
1629880741881,38755,157269,173324
1629880741891,38755,157281,173325
1629880741901,38745,157274,173323
1629880741911,38742,157301,173324
1629880741921,38740,157279,173320
1629880741931,38730,157281,173325
1629880741941,38726,157300,173337
1629880741951,38726,157270,173341
1629880741961,38729,157304,173342
1629880741971,38729,157289,173344
1629880741981,38732,157313,173347
1629880741991,38731,157315,173341
1629880742001,38731,157320,173354
1629880742011,38740,157313,173331
1629880742021,38737,157325,173353
1629880742031,38740,157317,173344
1629880742041,38743,157298,173338
1629880742051,38754,157317,173368
1629880742061,38744,157305,173365
1629880742071,38758,157362,173345
1629880742081,38762,157342,173384
1629880742091,38758,157328,173366
1629880742101,38775,157356,173359
1629880742111,38787,157357,173377
1629880742121,38788,157353,173379
1629880742131,38797,157345,173363
1629880742141,38801,157334,173374
1629880742151,38803,157374,173359
1629880742161,38813,157374,173363
1629880742171,38820,157363,173350
1629880742181,38830,157375,173386
1629880742191,38833,157366,173367
1629880742201,38842,157378,173375
1629880742211,38857,157367,173350
1629880742221,38857,157362,173370
1629880742231,38864,157398,173355
1629880742241,38871,157393,173368
1629880742251,38873,157372,173385
1629880742261,38883,157377,173367
1629880742271,38886,157395,173357
1629880742281,38905,157399,173370
1629880742291,38908,157402,173366
1629880742301,38919,157399,173393
1629880742311,38922,157403,173387
1629880742321,38932,157416,173389
1629880742331,38938,157446,173377
1629880742341,38948,157410,173386
1629880742351,38958,157439,173401
1629880742361,38962,157451,173385
1629880742371,38968,157421,173400
1629880742381,38996,157424,173406
1629880742391,38985,157429,173410
1629880742401,39002,157426,173377
1629880742411,39002,157425,173423
1629880742421,39001,157442,173394
1629880742431,38999,157416,173402
1629880742441,38986,157410,173432
1629880742451,38969,157407,173393
1629880742461,38950,157373,173397
1629880742471,38938,157329,173364
1629880742481,38912,157343,173363
1629880742491,38889,157317,173343
1629880742501,38870,157317,173315
1629880742511,38847,157300,173329
1629880742521,38831,157310,173330
1629880742531,38796,157302,173347
1629880742541,38790,157291,173340
1629880742551,38773,157304,173341
1629880742561,38748,157285,173337
1629880742571,38740,157252,173315
1629880742581,38715,157273,173323
1629880742591,38689,157251,173327
1629880742601,38677,157249,173341
1629880742611,38658,157240,173333
1629880742621,38634,157242,173321
1629880742631,38611,157223,173325
1629880742641,38596,157230,173307
1629880742651,38583,157228,173326
1629880742661,38566,157212,173299
1629880742671,38549,157210,173294
1629880742681,38535,157226,173307
1629880742691,38521,157231,173293
1629880742701,38502,157218,173290
1629880742711,38486,157227,173288
1629880742721,38488,157211,173303
1629880742731,38468,157224,173325
1629880742741,38464,157213,173306
1629880742751,38435,157218,173299
1629880742761,38431,157203,173308
1629880742771,38410,157213,173303
1629880742781,38405,157208,173295
1629880742791,38387,157207,173291
1629880742801,38384,157198,173297
1629880742811,38376,157226,173296
1629880742821,38361,157229,173299
1629880742831,38356,157219,173315
1629880742841,38354,157213,173300
1629880742851,38347,157215,173294
1629880742861,38335,157223,173312
1629880742871,38338,157221,173311
1629880742881,38341,157238,173311
1629880742891,38331,157239,173304
1629880742901,38327,157216,173329
1629880742911,38330,157210,173303
1629880742921,38324,157218,173295
1629880742931,38329,157226,173306
1629880742941,38323,157222,173327
1629880742951,38327,157218,173300
1629880742961,38339,157236,173308
1629880742971,38332,157219,173304
1629880742981,38344,157232,173308
1629880742991,38344,157245,173318
1629880743001,38355,157257,173312
1629880743011,38357,157266,173344
1629880743021,38362,157262,173313
1629880743031,38377,157251,173346
1629880743041,38384,157264,173350
1629880743051,38400,157272,173329
1629880743061,38405,157291,173338
1629880743071,38404,157260,173343
1629880743081,38410,157281,173376
1629880743091,38412,157281,173340
1629880743101,38419,157268,173333
1629880743111,38428,157294,173350
1629880743121,38442,157288,173337
1629880743131,38440,157306,173354
1629880743141,38458,157298,173327
1629880743151,38471,157301,173359
1629880743161,38469,157285,173343
1629880743171,38478,157300,173370
1629880743181,38494,157309,173353
1629880743191,38494,157319,173339
1629880743201,38504,157310,173359
1629880743211,38518,157305,173367
1629880743221,38521,157327,173356
1629880743231,38543,157313,173362
1629880743241,38549,157321,173379
1629880743251,38556,157314,173371
1629880743261,38574,157324,173370
1629880743271,38580,157338,173384
1629880743281,38589,157323,173383
1629880743291,38602,157331,173367
1629880743301,38611,157352,173383
1629880743311,38618,157338,173399
1629880743321,38634,157376,173382
1629880743331,38648,157354,173412
1629880743341,38652,157396,173409
1629880743351,38674,157377,173417
1629880743361,38675,157394,173387
1629880743371,38692,157387,173401
1629880743381,38692,157335,173401
1629880743391,38708,157376,173391
1629880743401,38708,157383,173387
1629880743411,38715,157378,173403
1629880743421,38719,157385,173393
1629880743431,38713,157359,173403
1629880743441,38696,157317,173390
1629880743451,38681,157298,173383
1629880743461,38666,157282,173352
1629880743471,38653,157279,173348
1629880743481,38635,157281,173330
1629880743491,38620,157248,173337
1629880743501,38608,157236,173341
1629880743511,38582,157258,173316
1629880743521,38587,157246,173356
1629880743531,38576,157238,173343
1629880743541,38562,157247,173346
1629880743551,38542,157220,173353
1629880743561,38542,157213,173348
1629880743571,38514,157233,173329
1629880743581,38505,157252,173328
1629880743591,38493,157199,173318
1629880743601,38481,157195,173330
1629880743611,38468,157202,173314
1629880743621,38452,157175,173316
1629880743631,38444,157187,173310
1629880743641,38438,157177,173282
1629880743651,38431,157186,173318
1629880743661,38431,157197,173304
1629880743671,38413,157186,173346
1629880743681,38413,157165,173303
1629880743691,38406,157192,173308
1629880743701,38398,157167,173288
1629880743711,38393,157184,173308
1629880743721,38392,157168,173316
1629880743731,38380,157175,173296
1629880743741,38381,157180,173341
1629880743751,38374,157193,173324
1629880743761,38372,157163,173333
1629880743771,38364,157178,173319
1629880743781,38361,157167,173303
1629880743791,38352,157156,173294
1629880743801,38354,157177,173300
1629880743811,38349,157156,173312
1629880743821,38356,157179,173323
1629880743831,38357,157174,173311
1629880743841,38357,157190,173350
1629880743851,38340,157181,173330
1629880743861,38361,157197,173327
1629880743871,38363,157190,173343
1629880743881,38366,157203,173334
1629880743891,38371,157231,173351
1629880743901,38378,157219,173350
1629880743911,38386,157208,173349
1629880743921,38389,157205,173373
1629880743931,38396,157244,173360
1629880743941,38401,157236,173362
1629880743951,38414,157230,173354
1629880743961,38429,157262,173379
1629880743971,38435,157268,173369
1629880743981,38445,157234,173379
1629880743991,38447,157271,173387
1629880744001,38455,157256,173385
1629880744011,38477,157278,173395
1629880744021,38473,157288,173398
1629880744031,38490,157288,173408
1629880744041,38501,157294,173414
1629880744051,38518,157320,173416
1629880744061,38522,157301,173418
1629880744071,38536,157324,173400
1629880744081,38541,157306,173419
1629880744091,38549,157327,173427
1629880744101,38569,157317,173422
1629880744111,38578,157322,173423
1629880744121,38588,157340,173427
1629880744131,38600,157355,173430
1629880744141,38612,157353,173417
1629880744151,38627,157354,173451
1629880744161,38635,157373,173434
1629880744171,38656,157374,173437
1629880744181,38659,157377,173448
1629880744191,38666,157365,173452
1629880744201,38680,157377,173451
1629880744211,38694,157395,173468
1629880744221,38706,157364,173477
1629880744231,38724,157396,173467
1629880744241,38727,157409,173476
1629880744251,38747,157424,173460
1629880744261,38757,157418,173461
1629880744271,38775,157431,173496
1629880744281,38784,157452,173518
1629880744291,38798,157448,173493
1629880744301,38813,157490,173498
1629880744311,38825,157466,173507
1629880744321,38827,157460,173489
1629880744331,38850,157470,173514
1629880744341,38858,157457,173496
1629880744351,38870,157446,173504
1629880744361,38886,157445,173494
1629880744371,38895,157427,173500
1629880744381,38902,157454,173484
1629880744391,38898,157446,173509
1629880744401,38895,157442,173517
1629880744411,38893,157431,173495
1629880744421,38877,157405,173483
1629880744431,38872,157372,173453
1629880744441,38862,157369,173467
1629880744451,38861,157348,173448
1629880744461,38849,157373,173445
1629880744471,38847,157367,173444
1629880744481,38848,157337,173434
1629880744491,38834,157344,173448
1629880744501,38839,157342,173456
1629880744511,38829,157348,173438
1629880744521,38831,157356,173444
1629880744531,38816,157315,173454
1629880744541,38824,157335,173432
1629880744551,38814,157311,173427
1629880744561,38815,157317,173439
1629880744571,38812,157317,173433
1629880744581,38799,157326,173436
1629880744591,38809,157321,173441
1629880744601,38801,157320,173437
1629880744611,38803,157329,173460
1629880744621,38815,157324,173430
1629880744631,38812,157326,173437
1629880744641,38805,157322,173414
1629880744651,38805,157326,173416
1629880744661,38811,157311,173423
1629880744671,38819,157322,173423
1629880744681,38812,157316,173438
1629880744691,38817,157301,173447
1629880744701,38815,157347,173412
1629880744711,38818,157337,173409
1629880744721,38824,157321,173438
1629880744731,38824,157317,173396
1629880744741,38818,157305,173384
1629880744751,38838,157319,173407
1629880744761,38824,157284,173422
1629880744771,38835,157342,173424
1629880744781,38839,157322,173431
1629880744791,38848,157329,173429
1629880744801,38840,157319,173427
1629880744811,38857,157344,173464
1629880744821,38855,157332,173432
1629880744831,38862,157344,173437
1629880744841,38874,157328,173436
1629880744851,38882,157358,173439
1629880744861,38890,157367,173411
1629880744871,38893,157369,173435
1629880744881,38904,157374,173443
1629880744891,38917,157359,173443
1629880744901,38926,157369,173440
1629880744911,38931,157398,173453
1629880744921,38940,157407,173459
1629880744931,38953,157412,173446
1629880744941,38963,157392,173439
1629880744951,38970,157404,173453
1629880744961,38987,157396,173437
1629880744971,38982,157417,173434
1629880744981,39005,157413,173476
1629880744991,39004,157432,173445
1629880745001,39022,157414,173441
1629880745011,39030,157423,173464
1629880745021,39043,157416,173431
1629880745031,39042,157408,173448
1629880745041,39058,157404,173458
1629880745051,39061,157407,173430
1629880745061,39068,157429,173424
1629880745071,39088,157424,173422
1629880745081,39096,157423,173448
1629880745091,39103,157422,173441
1629880745101,39112,157400,173459
1629880745111,39125,157420,173433
1629880745121,39140,157424,173430
1629880745131,39151,157422,173444
1629880745141,39152,157412,173411
1629880745151,39164,157423,173441
1629880745161,39183,157425,173450
1629880745171,39196,157454,173432
1629880745181,39195,157448,173437
1629880745191,39218,157462,173446
1629880745201,39221,157434,173462
1629880745211,39227,157464,173451
1629880745221,39224,157446,173469
1629880745231,39227,157427,173468
1629880745241,39210,157416,173461
1629880745251,39201,157408,173447
1629880745261,39207,157378,173426
1629880745271,39191,157380,173431
1629880745281,39187,157364,173404
1629880745291,39183,157359,173418
1629880745301,39189,157361,173410
1629880745311,39185,157370,173395
1629880745321,39195,157353,173400
1629880745331,39173,157351,173399
1629880745341,39171,157366,173408
1629880745351,39174,157365,173391
1629880745361,39170,157352,173412
1629880745371,39177,157348,173409
1629880745381,39175,157367,173418
1629880745391,39170,157358,173410
1629880745401,39165,157343,173398
1629880745411,39175,157338,173396
1629880745421,39174,157368,173418
1629880745431,39179,157381,173424
1629880745441,39182,157381,173438
1629880745451,39184,157366,173419
1629880745461,39197,157341,173407
1629880745471,39193,157367,173429
1629880745481,39188,157372,173428
1629880745491,39205,157370,173395
1629880745501,39197,157395,173419
1629880745511,39209,157375,173391
1629880745521,39211,157388,173414
1629880745531,39214,157385,173405
1629880745541,39209,157378,173415
1629880745551,39210,157373,173420
1629880745561,39211,157368,173386
1629880745571,39219,157364,173404
1629880745581,39228,157374,173408
1629880745591,39224,157388,173430
1629880745601,39239,157368,173426
1629880745611,39255,157376,173426
1629880745621,39253,157380,173414
1629880745631,39257,157395,173414
1629880745641,39263,157398,173455
1629880745651,39265,157418,173424
1629880745661,39286,157408,173421
1629880745671,39294,157431,173433
1629880745681,39301,157421,173430
1629880745691,39304,157411,173440
1629880745701,39315,157414,173438
1629880745711,39328,157432,173435
1629880745721,39337,157430,173454
1629880745731,39340,157426,173420
1629880745741,39350,157444,173436
1629880745751,39364,157457,173435
1629880745761,39364,157433,173424
1629880745771,39368,157448,173446
1629880745781,39380,157460,173427
1629880745791,39398,157445,173458
1629880745801,39398,157460,173463
1629880745811,39399,157487,173455
1629880745821,39417,157463,173448
1629880745831,39431,157444,173447
1629880745841,39434,157467,173456
1629880745851,39440,157488,173439
1629880745861,39450,157455,173440
1629880745871,39459,157466,173462
1629880745881,39470,157478,173457
1629880745891,39480,157482,173440
1629880745901,39492,157480,173458
1629880745911,39499,157489,173502
1629880745921,39503,157466,173440
1629880745931,39517,157494,173472
1629880745941,39531,157484,173443
1629880745951,39539,157493,173478
1629880745961,39547,157511,173473
1629880745971,39548,157542,173473
1629880745981,39556,157517,173470
1629880745991,39569,157514,173472
1629880746001,39585,157500,173471
1629880746011,39590,157520,173476
1629880746021,39600,157501,173455
1629880746031,39611,157518,173482
1629880746041,39615,157512,173480
1629880746051,39604,157495,173481
1629880746061,39601,157492,173470
1629880746071,39588,157454,173478
1629880746081,39570,157460,173439
1629880746091,39560,157428,173441
1629880746101,39552,157421,173408
1629880746111,39547,157431,173410
1629880746121,39542,157386,173436
1629880746131,39527,157397,173430
1629880746141,39541,157414,173419
1629880746151,39529,157415,173418
1629880746161,39519,157398,173414
1629880746171,39514,157410,173418
1629880746181,39506,157399,173419
1629880746191,39502,157387,173412
1629880746201,39500,157395,173439
1629880746211,39495,157385,173457
1629880746221,39482,157376,173418
1629880746231,39479,157398,173398
1629880746241,39475,157377,173413
1629880746251,39465,157358,173406
1629880746261,39468,157393,173409
1629880746271,39453,157390,173404
1629880746281,39463,157371,173423
1629880746291,39463,157379,173419
1629880746301,39452,157373,173419
1629880746311,39449,157365,173386
1629880746321,39448,157372,173412
1629880746331,39447,157379,173406
1629880746341,39448,157384,173422
1629880746351,39451,157359,173381
1629880746361,39446,157403,173392
1629880746371,39443,157384,173406
1629880746381,39440,157372,173413
1629880746391,39433,157372,173408
1629880746401,39434,157373,173400
1629880746411,39431,157379,173410
1629880746421,39439,157352,173414
1629880746431,39429,157384,173412
1629880746441,39434,157366,173396
1629880746451,39433,157358,173413
1629880746461,39438,157380,173382
1629880746471,39435,157386,173406
1629880746481,39441,157399,173419
1629880746491,39452,157396,173401
1629880746501,39448,157405,173419
1629880746511,39456,157401,173430
1629880746521,39459,157405,173427
1629880746531,39460,157440,173443
1629880746541,39473,157436,173431
1629880746551,39471,157416,173444
1629880746561,39483,157441,173445
1629880746571,39491,157441,173443
1629880746581,39495,157464,173435
1629880746591,39493,157440,173421
1629880746601,39509,157459,173429
1629880746611,39519,157452,173438
1629880746621,39522,157462,173447
1629880746631,39521,157444,173433
1629880746641,39530,157448,173449
1629880746651,39541,157493,173462
1629880746661,39547,157450,173459
1629880746671,39554,157459,173444
1629880746681,39563,157487,173460
1629880746691,39574,157484,173442
1629880746701,39572,157447,173438
1629880746711,39582,157495,173443
1629880746721,39593,157497,173451
1629880746731,39598,157497,173451
1629880746741,39599,157490,173467
1629880746751,39616,157486,173467
1629880746761,39626,157511,173472
1629880746771,39629,157513,173456
1629880746781,39645,157536,173473
1629880746791,39642,157491,173471
1629880746801,39651,157530,173464
1629880746811,39662,157535,173486
1629880746821,39671,157545,173475
1629880746831,39676,157546,173484
1629880746841,39688,157504,173472
1629880746851,39693,157528,173488
1629880746861,39696,157527,173476
1629880746871,39694,157516,173486
1629880746881,39680,157520,173484
1629880746891,39667,157496,173457
1629880746901,39649,157440,173433
1629880746911,39634,157455,173437
1629880746921,39621,157440,173441
1629880746931,39612,157428,173436
1629880746941,39610,157414,173438
1629880746951,39596,157407,173429
1629880746961,39596,157432,173432
1629880746971,39592,157455,173437
1629880746981,39583,157425,173470
1629880746991,39576,157431,173493
1629880747001,39571,157407,173461
1629880747011,39562,157426,173480
1629880747021,39559,157433,173468
1629880747031,39559,157435,173485
1629880747041,39546,157432,173485
1629880747051,39537,157443,173496
1629880747061,39531,157432,173505
1629880747071,39525,157440,173506
1629880747081,39510,157437,173508
1629880747091,39511,157444,173542
1629880747101,39504,157457,173531
1629880747111,39508,157474,173543
1629880747121,39503,157477,173527
1629880747131,39496,157468,173546
1629880747141,39489,157483,173550
1629880747151,39488,157493,173559
1629880747161,39481,157504,173561
1629880747171,39480,157509,173572
1629880747181,39481,157508,173588
1629880747191,39474,157524,173613
1629880747201,39479,157542,173617
1629880747211,39469,157534,173636
1629880747221,39465,157571,173660
1629880747231,39469,157603,173665
1629880747241,39464,157584,173682
1629880747251,39448,157595,173678
1629880747261,39468,157615,173680
1629880747271,39455,157616,173691
1629880747281,39451,157640,173682
1629880747291,39456,157647,173691
1629880747301,39456,157640,173724
1629880747311,39457,157663,173708
1629880747321,39459,157628,173723
1629880747331,39460,157676,173726
1629880747341,39457,157634,173742
1629880747351,39462,157638,173710
1629880747361,39466,157656,173725
1629880747371,39465,157655,173720
1629880747381,39469,157661,173733
1629880747391,39481,157656,173743
1629880747401,39489,157657,173699
1629880747411,39481,157689,173727
1629880747421,39487,157682,173723
1629880747431,39495,157678,173729
1629880747441,39501,157679,173735
1629880747451,39503,157680,173728
1629880747461,39509,157718,173734
1629880747471,39517,157692,173724
1629880747481,39521,157712,173691
1629880747491,39526,157670,173676
1629880747501,39532,157666,173659
1629880747511,39534,157665,173665
1629880747521,39538,157637,173646
1629880747531,39547,157639,173629
1629880747541,39556,157609,173628
1629880747551,39561,157600,173607
1629880747561,39561,157600,173591
1629880747571,39570,157608,173583
1629880747581,39585,157567,173571
1629880747591,39583,157605,173572
1629880747601,39588,157582,173569
1629880747611,39593,157584,173558
1629880747621,39603,157596,173557
1629880747631,39602,157573,173561
1629880747641,39617,157584,173537
1629880747651,39623,157581,173526
1629880747661,39636,157574,173543
1629880747671,39640,157582,173529
1629880747681,39643,157584,173528
1629880747691,39654,157577,173541
1629880747701,39661,157590,173516
1629880747711,39671,157553,173518
1629880747721,39673,157550,173514
1629880747731,39682,157556,173514
1629880747741,39682,157560,173508
1629880747751,39674,157530,173518
1629880747761,39664,157522,173490
1629880747771,39634,157508,173469
1629880747781,39625,157480,173460
1629880747791,39607,157453,173448
1629880747801,39601,157430,173432
1629880747811,39592,157445,173429
1629880747821,39582,157407,173433
1629880747831,39568,157413,173432
1629880747841,39564,157438,173412
1629880747851,39559,157434,173433
1629880747861,39557,157415,173443
1629880747871,39549,157414,173443
1629880747881,39535,157402,173440
1629880747891,39524,157438,173445
1629880747901,39525,157421,173433
1629880747911,39517,157418,173435
1629880747921,39493,157409,173443
1629880747931,39497,157399,173445
1629880747941,39490,157411,173449
1629880747951,39486,157427,173438
1629880747961,39472,157414,173430
1629880747971,39467,157423,173455
1629880747981,39466,157454,173473
1629880747991,39468,157454,173500
1629880748001,39459,157469,173509
1629880748011,39453,157494,173552
1629880748021,39452,157529,173556
1629880748031,39455,157543,173624
1629880748041,39455,157590,173665
1629880748051,39453,157656,173716
1629880748061,39455,157674,173768
1629880748071,39446,157726,173832
1629880748081,39460,157756,173838
1629880748091,39446,157772,173884
1629880748101,39448,157771,173883
1629880748111,39435,157772,173894
1629880748121,39435,157782,173878
1629880748131,39433,157770,173892
1629880748141,39428,157796,173904
1629880748151,39418,157785,173916
1629880748161,39425,157800,173904
1629880748171,39420,157816,173909
1629880748181,39423,157800,173945
1629880748191,39423,157814,173928
1629880748201,39419,157823,173927
1629880748211,39434,157807,173916
1629880748221,39411,157796,173927
1629880748231,39426,157802,173894
1629880748241,39423,157807,173900
1629880748251,39427,157807,173878
1629880748261,39421,157800,173889
1629880748271,39429,157807,173886
1629880748281,39433,157803,173890
1629880748291,39435,157840,173891
1629880748301,39446,157848,173910
1629880748311,39445,157837,173924
1629880748321,39453,157854,173926
1629880748331,39462,157878,173949
1629880748341,39464,157873,173964
1629880748351,39471,157887,173954
1629880748361,39486,157887,173956
1629880748371,39487,157900,173955
1629880748381,39487,157935,173972
1629880748391,39505,157931,173993
1629880748401,39506,157957,173992
1629880748411,39513,157963,174037
1629880748421,39518,157978,174039
1629880748431,39528,157992,174065
1629880748441,39530,158027,174079
1629880748451,39538,158033,174081
1629880748461,39547,158029,174059
1629880748471,39561,158045,174089
1629880748481,39564,158062,174109
1629880748491,39577,158090,174143
1629880748501,39582,158104,174183
1629880748511,39593,158128,174195
1629880748521,39600,158161,174182
1629880748531,39606,158161,174203
1629880748541,39603,158150,174200
1629880748551,39623,158184,174218
1629880748561,39629,158151,174219
1629880748571,39648,158171,174207
1629880748581,39651,158154,174166
1629880748591,39655,158169,174174
1629880748601,39658,158131,174134
1629880748611,39660,158133,174132
1629880748621,39672,158100,174095
1629880748631,39675,158062,174099
1629880748641,39670,158041,174097
1629880748651,39667,158022,174058
1629880748661,39645,158001,174020
1629880748671,39626,157952,174003
1629880748681,39609,157909,173955
1629880748691,39600,157878,173958
1629880748701,39585,157895,173932
1629880748711,39578,157812,173907
1629880748721,39557,157819,173877
1629880748731,39543,157788,173863
1629880748741,39541,157792,173828
1629880748751,39528,157753,173815
1629880748761,39514,157721,173788
1629880748771,39500,157700,173750
1629880748781,39496,157691,173758
1629880748791,39481,157701,173735
1629880748801,39475,157652,173706
1629880748811,39467,157633,173667
1629880748821,39453,157617,173652
1629880748831,39446,157600,173640
1629880748841,39446,157576,173641
1629880748851,39430,157604,173637
1629880748861,39412,157588,173616
1629880748871,39423,157580,173625
1629880748881,39416,157565,173611
1629880748891,39401,157568,173641
1629880748901,39398,157567,173598
1629880748911,39398,157582,173591
1629880748921,39388,157565,173600
1629880748931,39382,157568,173617
1629880748941,39380,157575,173630
1629880748951,39379,157582,173621
1629880748961,39375,157590,173637
1629880748971,39372,157575,173625
1629880748981,39365,157589,173630
1629880748991,39355,157562,173619
1629880749001,39354,157560,173634
1629880749011,39358,157566,173632
1629880749021,39355,157587,173625
1629880749031,39340,157582,173616
1629880749041,39348,157567,173612
1629880749051,39341,157567,173605
1629880749061,39333,157605,173606
1629880749071,39333,157599,173621
1629880749081,39331,157587,173609
1629880749091,39333,157582,173616
1629880749101,39334,157585,173644
1629880749111,39347,157581,173624
1629880749121,39343,157583,173639
1629880749131,39339,157585,173641
1629880749141,39342,157612,173632
1629880749151,39342,157645,173617
1629880749161,39360,157586,173645
1629880749171,39357,157609,173646
1629880749181,39367,157610,173623
1629880749191,39374,157624,173617
1629880749201,39371,157619,173643
1629880749211,39387,157611,173630
1629880749221,39371,157634,173636
1629880749231,39381,157621,173646
1629880749241,39386,157620,173646
1629880749251,39396,157639,173635
1629880749261,39401,157625,173617
1629880749271,39406,157641,173633
1629880749281,39414,157634,173626
1629880749291,39417,157653,173619
1629880749301,39419,157621,173624
1629880749311,39426,157636,173612
1629880749321,39437,157663,173608
1629880749331,39443,157628,173622
1629880749341,39449,157649,173619
1629880749351,39455,157626,173625
1629880749361,39464,157636,173618
1629880749371,39467,157664,173616
1629880749381,39484,157659,173629
1629880749391,39485,157660,173631
1629880749401,39492,157664,173624
1629880749411,39500,157670,173647
1629880749421,39507,157627,173639
1629880749431,39504,157690,173631
1629880749441,39517,157680,173656
1629880749451,39522,157679,173627
1629880749461,39546,157690,173660
1629880749471,39547,157695,173652
1629880749481,39555,157715,173646
1629880749491,39562,157708,173656
1629880749501,39574,157705,173670
1629880749511,39580,157679,173628
1629880749521,39580,157701,173640
1629880749531,39595,157691,173659
1629880749541,39599,157686,173663
1629880749551,39613,157701,173653
1629880749561,39606,157677,173658
1629880749571,39597,157679,173654
1629880749581,39584,157657,173637
1629880749591,39565,157655,173624
1629880749601,39545,157566,173605
1629880749611,39530,157577,173588
1629880749621,39518,157561,173589
1629880749631,39519,157568,173592
1629880749641,39508,157545,173582
1629880749651,39499,157584,173594
1629880749661,39500,157574,173581
1629880749671,39481,157575,173622
1629880749681,39480,157560,173606
1629880749691,39474,157571,173626
1629880749701,39473,157548,173592
1629880749711,39460,157562,173582
1629880749721,39448,157560,173615
1629880749731,39438,157547,173607
1629880749741,39432,157563,173596
1629880749751,39422,157544,173587
1629880749761,39419,157539,173574
1629880749771,39414,157543,173593
1629880749781,39403,157545,173592
1629880749791,39402,157574,173608
1629880749801,39406,157550,173595
1629880749811,39404,157562,173620
1629880749821,39391,157577,173598
1629880749831,39394,157582,173612
1629880749841,39379,157567,173621
1629880749851,39378,157580,173647
1629880749861,39394,157599,173643
1629880749871,39378,157624,173669
1629880749881,39371,157607,173678
1629880749891,39368,157592,173673
1629880749901,39370,157607,173671
1629880749911,39370,157605,173674
1629880749921,39365,157628,173692
1629880749931,39362,157623,173714
1629880749941,39361,157634,173725
1629880749951,39362,157669,173749
1629880749961,39363,157661,173778
1629880749971,39365,157659,173789
1629880749981,39362,157691,173810
1629880749991,39363,157678,173805
1629880750001,39380,157714,173815
1629880750011,39371,157706,173819
1629880750021,39378,157696,173835
1629880750031,39371,157695,173806
1629880750041,39374,157699,173813
1629880750051,39373,157660,173795
1629880750061,39379,157627,173743
1629880750071,39378,157648,173713
1629880750081,39376,157632,173685
1629880750091,39385,157616,173660
1629880750101,39387,157608,173636
1629880750111,39385,157579,173615
1629880750121,39391,157585,173603
1629880750131,39397,157575,173601
1629880750141,39400,157542,173564
1629880750151,39414,157538,173524
1629880750161,39413,157571,173534
1629880750171,39427,157557,173559
1629880750181,39429,157583,173580
1629880750191,39429,157604,173589
1629880750201,39445,157650,173658
1629880750211,39459,157724,173699
1629880750221,39476,157813,173806
1629880750231,39484,157904,173887
1629880750241,39507,157979,173992
1629880750251,39522,158075,174082
1629880750261,39536,158086,174142
1629880750271,39549,158154,174232
1629880750281,39569,158213,174268
1629880750291,39581,158269,174346
1629880750301,39597,158309,174388
1629880750311,39610,158337,174412
1629880750321,39629,158357,174470
1629880750331,39637,158463,174552
1629880750341,39653,158490,174631
1629880750351,39673,158549,174718
1629880750361,39682,158634,174798
1629880750371,39708,158723,174914
1629880750381,39729,158877,175130
1629880750391,39760,159055,175357
1629880750401,39781,159260,175612
1629880750411,39812,159473,175846
1629880750421,39823,159706,176148
1629880750431,39836,159918,176440
1629880750441,39862,160151,176748
1629880750451,39877,160379,177036
1629880750461,39892,160632,177343
1629880750471,39914,160841,177588
1629880750481,39928,160994,177813
1629880750491,39929,161166,178025
1629880750501,39934,161306,178193
1629880750511,39928,161449,178327
1629880750521,39940,161581,178485
1629880750531,39937,161657,178621
1629880750541,39932,161745,178728
1629880750551,39919,161826,178800
1629880750561,39924,161899,178897
1629880750571,39922,161957,178973
1629880750581,39916,161998,179018
1629880750591,39917,162018,179025
1629880750601,39905,162024,179043
1629880750611,39895,161991,179043
1629880750621,39885,161994,179028
1629880750631,39879,161985,179047
1629880750641,39872,162004,178994
1629880750651,39864,161994,178988
1629880750661,39850,162003,179013
1629880750671,39847,161994,178979
1629880750681,39850,161970,178965
1629880750691,39845,161958,178953
1629880750701,39836,161968,178937
1629880750711,39828,161959,178967
1629880750721,39828,162003,178974
1629880750731,39828,162002,178985
1629880750741,39816,161988,178973
1629880750751,39822,162014,179008
1629880750761,39811,162072,179047
1629880750771,39815,162093,179097
1629880750781,39807,162077,179114
1629880750791,39815,162114,179149
1629880750801,39814,162165,179197
1629880750811,39815,162204,179282
1629880750821,39820,162247,179312
1629880750831,39824,162304,179396
1629880750841,39821,162354,179454
1629880750851,39824,162394,179527
1629880750861,39830,162441,179582
1629880750871,39829,162459,179642
1629880750881,39834,162483,179703
1629880750891,39845,162537,179780
1629880750901,39850,162591,179823
1629880750911,39848,162610,179890
1629880750921,39853,162612,179940
1629880750931,39851,162638,179997
1629880750941,39866,162695,180028
1629880750951,39868,162724,180065
1629880750961,39875,162740,180099
1629880750971,39884,162744,180142
1629880750981,39889,162783,180136
1629880750991,39888,162782,180129
1629880751001,39886,162793,180164
1629880751011,39891,162782,180108
1629880751021,39891,162773,180073
1629880751031,39889,162736,180037
1629880751041,39886,162704,180000
1629880751051,39890,162699,179935
1629880751061,39882,162646,179866
1629880751071,39882,162612,179804
1629880751081,39873,162563,179722
1629880751091,39868,162521,179643
1629880751101,39863,162475,179596
1629880751111,39862,162450,179550
1629880751121,39857,162400,179480
1629880751131,39864,162398,179464
1629880751141,39860,162373,179411
1629880751151,39863,162315,179413
1629880751161,39868,162324,179340
1629880751171,39872,162310,179304
1629880751181,39865,162274,179282
1629880751191,39862,162232,179239
1629880751201,39867,162224,179195
1629880751211,39868,162204,179152
1629880751221,39867,162150,179078
1629880751231,39858,162107,179024
1629880751241,39850,161993,178911
1629880751251,39831,161907,178769
1629880751261,39814,161804,178660
1629880751271,39789,161683,178524
1629880751281,39768,161588,178386
1629880751291,39743,161465,178214
1629880751301,39721,161371,178085
1629880751311,39696,161259,177946
1629880751321,39664,161133,177792
1629880751331,39628,160908,177530
1629880751341,39584,160625,177224
1629880751351,39529,160225,176785
1629880751361,39455,159667,176174
1629880751371,39387,159125,175555
1629880751381,39324,158670,175060
1629880751391,39263,158327,174657
1629880751401,39234,158130,174434
1629880751411,39208,157975,174237
1629880751421,39182,157786,174065
1629880751431,39157,157616,173828
1629880751441,39125,157420,173640
1629880751451,39107,157261,173385
1629880751461,39057,157052,173192
1629880751471,39033,156906,172994
1629880751481,39007,156769,172850
1629880751491,38995,156694,172730
1629880751501,38989,156638,172603
1629880751511,38968,156542,172510
1629880751521,38964,156485,172455
1629880751531,38963,156492,172386
1629880751541,38969,156476,172405
1629880751551,38993,156556,172499
1629880751561,39011,156699,172689
1629880751571,39039,156888,172908
1629880751581,39068,157053,173088
1629880751591,39085,157167,173224
1629880751601,39088,157222,173291
1629880751611,39098,157187,173251
1629880751621,39091,157133,173184
1629880751631,39073,157052,173091
1629880751641,39064,156957,172989
1629880751651,39063,156893,172893
1629880751661,39049,156772,172754
1629880751671,39035,156618,172550
1629880751681,39011,156400,172306
1629880751691,38988,156225,172071
1629880751701,38957,155998,171784
1629880751711,38922,155801,171514
1629880751721,38893,155594,171248
1629880751731,38852,155383,170944
1629880751741,38814,155169,170681
1629880751751,38779,154987,170413
1629880751761,38745,154807,170147
1629880751771,38725,154652,169893
1629880751781,38695,154549,169730
1629880751791,38681,154410,169574
1629880751801,38662,154323,169387
1629880751811,38643,154210,169261
1629880751821,38645,154159,169170
1629880751831,38637,154069,169050
1629880751841,38630,154035,168952
1629880751851,38638,153974,168903
1629880751861,38638,153954,168830
1629880751871,38638,153912,168768
1629880751881,38643,153884,168718
1629880751891,38651,153862,168671
1629880751901,38645,153801,168631
1629880751911,38659,153811,168581
1629880751921,38663,153767,168553
1629880751931,38670,153750,168503
1629880751941,38674,153721,168461
1629880751951,38674,153700,168413
1629880751961,38682,153658,168380
1629880751971,38690,153640,168307
1629880751981,38691,153600,168261
1629880751991,38698,153602,168228
1629880752001,38701,153554,168209
1629880752011,38703,153516,168186
1629880752021,38718,153504,168147
1629880752031,38730,153508,168137
1629880752041,38737,153514,168135
1629880752051,38757,153494,168135
1629880752061,38762,153503,168110
1629880752071,38774,153490,168117
1629880752081,38784,153513,168106
1629880752091,38785,153490,168111
1629880752101,38803,153502,168088
1629880752111,38814,153474,168088
1629880752121,38806,153465,168082
1629880752131,38806,153456,168061
1629880752141,38814,153457,168061
1629880752151,38816,153409,168007
1629880752161,38819,153411,168016
1629880752171,38821,153417,168019
1629880752181,38822,153417,167971
1629880752191,38824,153391,167947
1629880752201,38826,153402,167968
1629880752211,38831,153353,167953
1629880752221,38834,153369,167955
1629880752231,38837,153372,167931
1629880752241,38838,153360,167954
1629880752251,38853,153360,167965
1629880752261,38852,153373,167943
1629880752271,38847,153365,167926
1629880752281,38864,153335,167916
1629880752291,38853,153337,167889
1629880752301,38859,153343,167877
1629880752311,38864,153303,167857
1629880752321,38858,153302,167817
1629880752331,38863,153277,167798
1629880752341,38864,153261,167750
1629880752351,38860,153225,167710
1629880752361,38860,153194,167695
1629880752371,38861,153184,167660
1629880752381,38866,153137,167619
1629880752391,38854,153129,167601
1629880752401,38853,153121,167572
1629880752411,38863,153122,167516
1629880752421,38870,153058,167473
1629880752431,38861,153035,167418
1629880752441,38854,152992,167403
1629880752451,38855,152989,167367
1629880752461,38867,152955,167360
1629880752471,38873,152940,167325
1629880752481,38872,152948,167326
1629880752491,38883,152938,167328
1629880752501,38882,152920,167313
1629880752511,38889,152915,167296
1629880752521,38891,152893,167264
1629880752531,38894,152876,167248
1629880752541,38898,152860,167201
1629880752551,38897,152833,167213
1629880752561,38904,152824,167167
1629880752571,38911,152816,167144
1629880752581,38916,152794,167125
1629880752591,38914,152769,167105
1629880752601,38938,152783,167084
1629880752611,38928,152774,167104
1629880752621,38939,152748,167090
1629880752631,38951,152756,167098
1629880752641,38951,152715,167064
1629880752651,38959,152745,167064
1629880752661,38971,152735,167065
1629880752671,38978,152748,167063
1629880752681,38986,152736,167040
1629880752691,39000,152761,167069
1629880752701,39010,152727,167006
1629880752711,39012,152735,167028
1629880752721,39024,152751,167051
1629880752731,39035,152735,167027
1629880752741,39042,152727,167050
1629880752751,39045,152691,167056
1629880752761,39068,152749,167050
1629880752771,39061,152709,167049
1629880752781,39094,152740,167069
1629880752791,39089,152765,167075
1629880752801,39102,152776,167088
1629880752811,39113,152766,167089
1629880752821,39127,152762,167088
1629880752831,39139,152772,167108
1629880752841,39151,152763,167091
1629880752851,39162,152786,167093
1629880752861,39165,152774,167096
1629880752871,39176,152791,167096
1629880752881,39181,152787,167084
1629880752891,39181,152790,167099
1629880752901,39193,152773,167080
1629880752911,39201,152788,167093
1629880752921,39209,152755,167086
1629880752931,39222,152776,167116
1629880752941,39222,152776,167105
1629880752951,39222,152784,167081
1629880752961,39228,152767,167089
1629880752971,39225,152753,167066
1629880752981,39226,152718,167072
1629880752991,39229,152735,167064
1629880753001,39229,152720,167059
1629880753011,39227,152732,167036
1629880753021,39229,152727,167022
1629880753031,39222,152731,167019
1629880753041,39233,152718,167028
1629880753051,39230,152701,167025
1629880753061,39227,152729,167022
1629880753071,39229,152724,167021
1629880753081,39238,152701,167002
1629880753091,39232,152724,167014
1629880753101,39237,152698,166985
1629880753111,39236,152691,166977
1629880753121,39228,152643,166940
1629880753131,39232,152639,166939
1629880753141,39237,152650,166960
1629880753151,39235,152667,166956
1629880753161,39237,152655,166937
1629880753171,39242,152657,166937
1629880753181,39239,152631,166965
1629880753191,39238,152644,166957
1629880753201,39248,152642,166949
1629880753211,39246,152649,166948
1629880753221,39238,152661,166944
1629880753231,39254,152644,166946
1629880753241,39245,152651,166938
1629880753251,39254,152675,166942
1629880753261,39249,152673,166949
1629880753271,39253,152636,166936
1629880753281,39260,152648,166910
1629880753291,39258,152647,166932
1629880753301,39261,152666,166925
1629880753311,39262,152643,166936
1629880753321,39268,152636,166943
1629880753331,39267,152660,166909
1629880753341,39267,152632,166903
1629880753351,39269,152626,166894
1629880753361,39266,152634,166880
1629880753371,39267,152610,166870
1629880753381,39264,152605,166847
1629880753391,39276,152601,166869
1629880753401,39271,152604,166873
1629880753411,39281,152589,166861
1629880753421,39282,152616,166877
1629880753431,39283,152597,166893
1629880753441,39301,152620,166888
1629880753451,39307,152618,166909
1629880753461,39312,152628,166925
1629880753471,39312,152624,166945
1629880753481,39321,152646,166933
1629880753491,39321,152650,166957
1629880753501,39334,152671,166960
1629880753511,39335,152685,167004
1629880753521,39343,152688,166999
1629880753531,39349,152693,167006
1629880753541,39356,152688,167025
1629880753551,39346,152692,167019
1629880753561,39360,152680,167020
1629880753571,39368,152683,167030
1629880753581,39376,152707,167020
1629880753591,39364,152708,167035
1629880753601,39386,152701,167002
1629880753611,39386,152723,167025
1629880753621,39389,152703,167026
1629880753631,39388,152726,167016
1629880753641,39389,152730,167036
1629880753651,39405,152716,166996
1629880753661,39403,152715,166995
1629880753671,39409,152730,167005
1629880753681,39415,152701,167002
1629880753691,39421,152700,166977
1629880753701,39418,152712,166973
1629880753711,39430,152712,166964
1629880753721,39430,152717,166930
1629880753731,39436,152715,166923
1629880753741,39434,152703,166918
1629880753751,39440,152717,166902
1629880753761,39445,152695,166873
1629880753771,39450,152684,166872
1629880753781,39460,152644,166846
1629880753791,39468,152680,166859
1629880753801,39468,152657,166848
1629880753811,39468,152654,166834
1629880753821,39470,152622,166824
1629880753831,39476,152663,166821
1629880753841,39483,152627,166819
1629880753851,39473,152626,166795
1629880753861,39474,152601,166752
1629880753871,39473,152615,166750
1629880753881,39472,152577,166726
1629880753891,39455,152568,166702
1629880753901,39450,152552,166677
1629880753911,39448,152520,166647
1629880753921,39453,152524,166607
1629880753931,39444,152515,166615
1629880753941,39437,152517,166585
1629880753951,39441,152475,166554
1629880753961,39431,152466,166525
1629880753971,39423,152443,166495
1629880753981,39421,152420,166496
1629880753991,39419,152415,166481
1629880754001,39420,152424,166492
1629880754011,39419,152425,166523
1629880754021,39433,152470,166567
1629880754031,39434,152479,166605
1629880754041,39429,152484,166618
1629880754051,39431,152504,166614
1629880754061,39438,152496,166637
1629880754071,39416,152487,166600
1629880754081,39431,152466,166579
1629880754091,39416,152432,166540
1629880754101,39420,152433,166527
1629880754111,39414,152446,166512
1629880754121,39419,152389,166504
1629880754131,39414,152418,166469
1629880754141,39411,152392,166461
1629880754151,39398,152342,166388
1629880754161,39394,152291,166295
1629880754171,39394,152267,166257
1629880754181,39379,152182,166165
1629880754191,39378,152159,166082
1629880754201,39357,152099,166018
1629880754211,39351,152046,165968
1629880754221,39337,152023,165900
1629880754231,39351,151995,165873
1629880754241,39343,151972,165819
1629880754251,39334,151951,165816
1629880754261,39340,151957,165803
1629880754271,39341,151943,165808
1629880754281,39343,151943,165778
1629880754291,39349,151954,165765
1629880754301,39345,151929,165737
1629880754311,39350,151913,165736
1629880754321,39346,151905,165737
1629880754331,39348,151905,165755
1629880754341,39354,151943,165754
1629880754351,39356,151945,165777
1629880754361,39357,151939,165760
1629880754371,39354,151913,165712
1629880754381,39341,151874,165644
1629880754391,39345,151807,165543
1629880754401,39347,151749,165438
1629880754411,39338,151679,165361
1629880754421,39334,151620,165296
1629880754431,39338,151606,165213
1629880754441,39335,151532,165145
1629880754451,39331,151466,165050
1629880754461,39325,151425,164957
1629880754471,39330,151376,164907
1629880754481,39324,151347,164853
1629880754491,39323,151304,164802
1629880754501,39330,151304,164766
1629880754511,39337,151274,164712
1629880754521,39334,151239,164672
1629880754531,39338,151216,164616
1629880754541,39327,151216,164580
1629880754551,39328,151209,164527
1629880754561,39332,151171,164511
1629880754571,39339,151167,164500
1629880754581,39333,151222,164474
1629880754591,39339,151192,164485
1629880754601,39353,151214,164479
1629880754611,39361,151248,164488
1629880754621,39358,151269,164522
1629880754631,39375,151354,164589
1629880754641,39397,151421,164697
1629880754651,39418,151527,164784
1629880754661,39455,151690,165003
1629880754671,39515,151932,165330
1629880754681,39625,152354,165950
1629880754691,39808,153215,167114
1629880754701,40049,154360,168574
1629880754711,40203,155138,169563
1629880754721,40233,155378,169863
1629880754731,40217,155390,169895
1629880754741,40180,155364,169885
1629880754751,40157,155265,169786
1629880754761,40118,155150,169671
1629880754771,40079,155008,169514
1629880754781,40027,154830,169347
1629880754791,39991,154686,169182
1629880754801,39946,154575,169040
1629880754811,39898,154427,168903
1629880754821,39860,154293,168741
1629880754831,39796,154165,168597
1629880754841,39742,153987,168388
1629880754851,39680,153775,168105
1629880754861,39605,153520,167783
1629880754871,39537,153267,167463
1629880754881,39464,153095,167221
1629880754891,39422,152966,167049
1629880754901,39392,152895,166906
1629880754911,39370,152832,166850
1629880754921,39361,152786,166805
1629880754931,39342,152773,166749
1629880754941,39320,152675,166668
1629880754951,39301,152641,166564
1629880754961,39286,152571,166475
1629880754971,39270,152533,166417
1629880754981,39265,152525,166381
1629880754991,39265,152512,166373
1629880755001,39246,152505,166328
1629880755011,39253,152463,166297
1629880755021,39240,152435,166227
1629880755031,39227,152419,166214
1629880755041,39223,152396,166163
1629880755051,39237,152396,166174
1629880755061,39235,152394,166145
1629880755071,39234,152355,166097
1629880755081,39215,152304,166057
1629880755091,39225,152317,166017
1629880755101,39222,152290,165995
1629880755111,39231,152259,166003
1629880755121,39234,152232,165966
1629880755131,39235,152224,165968
1629880755141,39245,152263,165963
1629880755151,39251,152232,165956
1629880755161,39244,152211,165932
1629880755171,39246,152187,165902
1629880755181,39248,152171,165897
1629880755191,39250,152173,165887
1629880755201,39264,152139,165878
1629880755211,39273,152096,165887
1629880755221,39263,152098,165874
1629880755231,39269,152137,165858
1629880755241,39280,152085,165862
1629880755251,39282,152080,165855
1629880755261,39279,152059,165843
1629880755271,39297,152076,165804
1629880755281,39297,152069,165829
1629880755291,39301,152075,165823
1629880755301,39305,152042,165792
1629880755311,39309,152059,165783
1629880755321,39314,152062,165773
1629880755331,39322,152036,165778
1629880755341,39328,152051,165757
1629880755351,39326,152026,165748
1629880755361,39338,152030,165770
1629880755371,39348,152014,165746
1629880755381,39352,152034,165756
1629880755391,39363,152038,165744
1629880755401,39373,152052,165760
1629880755411,39386,152050,165744
1629880755421,39390,152052,165754
1629880755431,39394,152075,165769
1629880755441,39407,152046,165762
1629880755451,39412,152077,165785
1629880755461,39418,152076,165790
1629880755471,39428,152083,165774
1629880755481,39429,152100,165809
1629880755491,39445,152126,165828
1629880755501,39449,152127,165852
1629880755511,39458,152115,165880
1629880755521,39461,152180,165884
1629880755531,39462,152157,165899
1629880755541,39473,152186,165909
1629880755551,39485,152192,165937
1629880755561,39487,152214,165973
1629880755571,39491,152216,165991
1629880755581,39484,152226,165984
1629880755591,39491,152242,166008
1629880755601,39495,152239,165983
1629880755611,39495,152224,166024
1629880755621,39497,152267,166043
1629880755631,39496,152248,166031
1629880755641,39497,152261,166029
1629880755651,39487,152235,166034
1629880755661,39484,152262,166041
1629880755671,39484,152242,166039
1629880755681,39485,152253,166029
1629880755691,39486,152264,166025
1629880755701,39485,152264,166024
1629880755711,39480,152237,166015
1629880755721,39480,152265,166024
1629880755731,39472,152251,166044
1629880755741,39478,152259,166031
1629880755751,39477,152270,166040
1629880755761,39479,152271,166024
1629880755771,39482,152257,166003
1629880755781,39482,152240,166029
1629880755791,39472,152223,166003
1629880755801,39476,152244,165964
1629880755811,39469,152225,165968
1629880755821,39469,152230,165951
1629880755831,39473,152220,165972
1629880755841,39462,152232,165950
1629880755851,39472,152188,165939
1629880755861,39463,152209,165953
1629880755871,39466,152208,165926
1629880755881,39462,152221,165930
1629880755891,39469,152186,165923
1629880755901,39471,152196,165946
1629880755911,39480,152207,165941
1629880755921,39470,152207,165938
1629880755931,39474,152206,165947
1629880755941,39483,152227,165953
1629880755951,39501,152226,165954
1629880755961,39485,152237,165950
1629880755971,39479,152257,165950
1629880755981,39493,152233,165944
1629880755991,39485,152246,165921
1629880756001,39481,152236,165929
1629880756011,39488,152233,165928
1629880756021,39495,152213,165951
1629880756031,39497,152229,165895
1629880756041,39488,152212,165910
1629880756051,39501,152209,165909
1629880756061,39495,152216,165889
1629880756071,39502,152218,165884
1629880756081,39497,152174,165863
1629880756091,39498,152197,165864
1629880756101,39510,152214,165852
1629880756111,39517,152184,165863
1629880756121,39514,152210,165866
1629880756131,39516,152209,165876
1629880756141,39522,152232,165886
1629880756151,39524,152227,165887
1629880756161,39522,152246,165895
1629880756171,39533,152219,165887
1629880756181,39547,152203,165865
1629880756191,39545,152212,165856
1629880756201,39547,152215,165881
1629880756211,39549,152237,165863
1629880756221,39553,152211,165862
1629880756231,39563,152235,165900
1629880756241,39565,152207,165884
1629880756251,39565,152250,165893
1629880756261,39576,152252,165899
1629880756271,39578,152262,165900
1629880756281,39586,152244,165910
1629880756291,39585,152252,165905
1629880756301,39597,152245,165901
1629880756311,39590,152270,165904
1629880756321,39606,152274,165951
1629880756331,39617,152254,165933
1629880756341,39608,152286,165926
1629880756351,39617,152284,165942
1629880756361,39614,152286,165929
1629880756371,39601,152285,165915
1629880756381,39605,152267,165904
1629880756391,39609,152246,165894
1629880756401,39599,152246,165889
1629880756411,39594,152211,165863
1629880756421,39586,152218,165849
1629880756431,39596,152201,165828
1629880756441,39584,152213,165820
1629880756451,39572,152193,165815
1629880756461,39573,152179,165822
1629880756471,39572,152205,165820
1629880756481,39574,152157,165799
1629880756491,39562,152188,165802
1629880756501,39568,152174,165756
1629880756511,39548,152156,165784
1629880756521,39544,152177,165751
1629880756531,39545,152139,165764
1629880756541,39542,152146,165757
1629880756551,39527,152130,165725
1629880756561,39528,152110,165709
1629880756571,39527,152123,165706
1629880756581,39525,152148,165697
1629880756591,39525,152141,165743
1629880756601,39520,152142,165736
1629880756611,39519,152155,165727
1629880756621,39517,152142,165752
1629880756631,39512,152163,165732
1629880756641,39517,152154,165734
1629880756651,39506,152168,165756
1629880756661,39511,152187,165737
1629880756671,39514,152187,165754
1629880756681,39520,152190,165773
1629880756691,39513,152208,165793
1629880756701,39515,152231,165842
1629880756711,39525,152236,165896
1629880756721,39527,152264,165924
1629880756731,39531,152312,165962
1629880756741,39536,152305,165971
1629880756751,39545,152306,165981
1629880756761,39525,152301,165970
1629880756771,39526,152267,165942
1629880756781,39516,152274,165928
1629880756791,39521,152285,165943
1629880756801,39515,152307,165964
1629880756811,39525,152314,165966
1629880756821,39531,152304,165976
1629880756831,39524,152325,166002
1629880756841,39533,152364,166002
1629880756851,39534,152368,166029
1629880756861,39535,152365,166062
1629880756871,39533,152395,166034
1629880756881,39538,152380,166031
1629880756891,39539,152381,166056
