timestamp,green,ir,red
1630067051819,38413,262151,294145
1630067051829,38429,262192,294170
1630067051839,38465,262209,294185
1630067051849,38487,262254,294206
1630067051859,38532,262300,294211
1630067051869,38562,262268,294187
1630067051879,38585,262272,294193
1630067051889,38615,262328,294217
1630067051899,38648,262317,294204
1630067051909,38675,262288,294224
1630067051919,38705,262305,294216
1630067051929,38717,262190,294160
1630067051939,38714,262099,294105
1630067051949,38686,261978,294032
1630067051959,38647,261867,293977
1630067051969,38582,261742,293940
1630067051979,38535,261640,293887
1630067051989,38466,261531,293801
1630067051999,38395,261433,293787
1630067052009,38332,261383,293763
1630067052019,38271,261338,293740
1630067052029,38219,261291,293724
1630067052039,38167,261245,293704
1630067052049,38130,261220,293692
1630067052059,38094,261236,293667
1630067052069,38061,261234,293673
1630067052079,38029,261196,293655
1630067052089,38001,261199,293661
1630067052099,37995,261160,293648
1630067052109,37971,261185,293664
1630067052119,37941,261167,293648
1630067052129,37922,261153,293636
1630067052139,37911,261143,293627
1630067052149,37892,261123,293650
1630067052159,37870,261144,293634
1630067052169,37883,261167,293638
1630067052179,37872,261173,293660
1630067052189,37885,261192,293652
1630067052199,37887,261221,293726
1630067052209,37896,261286,293729
1630067052219,37893,261267,293732
1630067052229,37888,261320,293768
1630067052239,37888,261346,293805
1630067052249,37892,261367,293845
1630067052259,37895,261378,293876
1630067052269,37900,261464,293890
1630067052279,37887,261476,293955
1630067052289,37894,261576,294031
1630067052299,37894,261652,294099
1630067052309,37903,261731,294188
1630067052319,37905,261761,294260
1630067052329,37938,261874,294347
1630067052339,37939,261984,294372
1630067052349,37954,262073,294469
1630067052359,37981,262182,294547
1630067052369,38000,262245,294603
1630067052379,38015,262365,294746
1630067052389,38041,262443,294809
1630067052399,38067,262559,294884
1630067052409,38092,262669,294992
1630067052419,38136,262777,295050
1630067052429,38161,262858,295176
1630067052439,38184,262964,295231
1630067052449,38215,263068,295358
1630067052459,38263,263242,295436
1630067052469,38304,263294,295587
1630067052479,38339,263497,295685
1630067052489,38382,263620,295780
1630067052499,38414,263728,295829
1630067052509,38446,263817,295932
1630067052519,38485,263909,296007
1630067052529,38526,264014,296122
1630067052539,38557,264170,296128
1630067052549,38600,264223,296243
1630067052559,38629,264378,296334
1630067052569,38665,264422,296369
1630067052579,38706,264540,296510
1630067052589,38760,264658,296559
1630067052599,38795,264758,296647
1630067052609,38830,264829,296710
1630067052619,38879,264948,296824
1630067052629,38910,265032,296840
1630067052639,38949,265170,296932
1630067052649,39001,265232,296998
1630067052659,39033,265284,297062
1630067052669,39065,265398,297056
1630067052679,39084,265366,297114
1630067052689,39073,265368,297090
1630067052699,39053,265334,297119
1630067052709,39016,265253,297083
1630067052719,38975,265222,297120
1630067052729,38928,265160,297102
1630067052739,38877,265132,297112
1630067052749,38811,265081,297107
1630067052759,38760,265088,297103
1630067052769,38704,265049,297121
1630067052779,38650,265060,297134
1630067052789,38619,265083,297160
1630067052799,38578,265073,297165
1630067052809,38550,265097,297199
1630067052819,38523,265141,297157
1630067052829,38495,265174,297219
1630067052839,38474,265222,297218
1630067052849,38459,265216,297264
1630067052859,38432,265201,297301
1630067052869,38418,265236,297327
1630067052879,38405,265320,297348
1630067052889,38391,265374,297375
1630067052899,38386,265376,297419
1630067052909,38393,265432,297442
1630067052919,38389,265483,297437
1630067052929,38395,265536,297484
1630067052939,38381,265568,297527
1630067052949,38383,265568,297542
1630067052959,38392,265582,297532
1630067052969,38390,265641,297557
1630067052979,38368,265641,297559
1630067052989,38367,265601,297525
1630067052999,38361,265626,297543
1630067053009,38342,265594,297543
1630067053019,38343,265612,297556
1630067053029,38323,265598,297565
1630067053039,38320,265587,297555
1630067053049,38305,265580,297521
1630067053059,38298,265610,297532
1630067053069,38290,265616,297535
1630067053079,38293,265544,297503
1630067053089,38285,265572,297487
1630067053099,38286,265566,297488
1630067053109,38268,265573,297470
1630067053119,38275,265579,297411
1630067053129,38292,265551,297415
1630067053139,38291,265535,297390
1630067053149,38302,265541,297362
1630067053159,38330,265540,297346
1630067053169,38333,265555,297339
1630067053179,38347,265519,297335
1630067053189,38365,265521,297298
1630067053199,38375,265502,297308
1630067053209,38396,265542,297294
1630067053219,38407,265531,297270
1630067053229,38420,265520,297277
1630067053239,38448,265495,297257
1630067053249,38458,265535,297223
1630067053259,38472,265578,297231
1630067053269,38499,265536,297239
1630067053279,38511,265572,297236
1630067053289,38529,265529,297245
1630067053299,38539,265592,297229
1630067053309,38565,265590,297207
1630067053319,38593,265567,297185
1630067053329,38609,265565,297170
1630067053339,38632,265562,297146
1630067053349,38662,265590,297150
1630067053359,38684,265604,297179
1630067053369,38715,265599,297144
1630067053379,38741,265575,297162
1630067053389,38765,265631,297147
1630067053399,38794,265602,297102
1630067053409,38797,265554,297074
1630067053419,38815,265455,296977
1630067053429,38796,265349,296897
1630067053439,38753,265237,296792
1630067053449,38707,265040,296698
1630067053459,38647,264876,296620
1630067053469,38575,264738,296507
1630067053479,38512,264613,296425
1630067053489,38420,264451,296341
1630067053499,38353,264325,296223
1630067053509,38275,264181,296138
1630067053519,38225,264086,296035
1630067053529,38161,263980,295929
1630067053539,38102,263931,295896
1630067053549,38069,263808,295854
1630067053559,38028,263780,295808
1630067053569,37990,263709,295752
1630067053579,37946,263628,295663
1630067053589,37921,263593,295630
1630067053599,37895,263522,295595
1630067053609,37853,263475,295554
1630067053619,37831,263460,295525
1630067053629,37804,263425,295421
1630067053639,37790,263412,295450
1630067053649,37782,263408,295399
1630067053659,37771,263424,295398
1630067053669,37778,263444,295374
1630067053679,37778,263433,295406
1630067053689,37788,263434,295392
1630067053699,37781,263409,295383
1630067053709,37778,263383,295370
1630067053719,37782,263367,295345
1630067053729,37771,263359,295352
1630067053739,37772,263288,295318
1630067053749,37766,263334,295306
1630067053759,37764,263264,295239
1630067053769,37746,263275,295271
1630067053779,37755,263229,295237
1630067053789,37741,263246,295241
1630067053799,37751,263260,295209
1630067053809,37762,263248,295245
1630067053819,37769,263294,295249
1630067053829,37782,263318,295245
1630067053839,37801,263364,295281
1630067053849,37816,263365,295312
1630067053859,37842,263397,295351
1630067053869,37867,263467,295355
1630067053879,37903,263532,295396
1630067053889,37929,263562,295436
1630067053899,37950,263604,295485
1630067053909,37988,263679,295498
1630067053919,38031,263725,295562
1630067053929,38062,263811,295614
1630067053939,38097,263861,295687
1630067053949,38128,263929,295730
1630067053959,38172,264006,295762
1630067053969,38208,264060,295825
1630067053979,38240,264104,295875
1630067053989,38280,264213,295927
1630067053999,38319,264240,295951
1630067054009,38351,264294,296013
1630067054019,38390,264333,296006
1630067054029,38419,264351,296021
1630067054039,38450,264374,296081
1630067054049,38478,264435,296092
1630067054059,38528,264476,296085
1630067054069,38561,264497,296131
1630067054079,38593,264538,296161
1630067054089,38627,264565,296176
1630067054099,38641,264591,296193
1630067054109,38679,264620,296173
1630067054119,38713,264631,296234
1630067054129,38735,264684,296213
1630067054139,38767,264691,296262
1630067054149,38797,264726,296270
1630067054159,38836,264765,296270
1630067054169,38873,264846,296310
1630067054179,38918,264893,296320
1630067054189,38946,264904,296374
1630067054199,38984,264949,296368
1630067054209,39024,264937,296411
1630067054219,39025,264922,296394
1630067054229,39032,264878,296351
1630067054239,38996,264770,296297
1630067054249,38958,264710,296288
1630067054259,38885,264604,296234
1630067054269,38832,264493,296182
1630067054279,38757,264391,296175
1630067054289,38681,264313,296162
1630067054299,38603,264271,296153
1630067054309,38532,264231,296156
1630067054319,38471,264208,296100
1630067054329,38412,264159,296103
1630067054339,38358,264128,296093
1630067054349,38305,264079,296075
1630067054359,38264,264092,296084
1630067054369,38221,264050,296067
1630067054379,38194,264062,296093
1630067054389,38147,264034,296088
1630067054399,38111,264032,296062
1630067054409,38061,263990,296040
1630067054419,38038,263953,296040
1630067054429,37988,263965,296031
1630067054439,37960,263954,296012
1630067054449,37941,263980,296031
1630067054459,37927,263979,296019
1630067054469,37903,263978,295996
1630067054479,37899,263959,296019
1630067054489,37884,263971,295989
1630067054499,37882,263942,295979
1630067054509,37878,263961,295945
1630067054519,37863,263950,295963
1630067054529,37864,263873,295957
1630067054539,37850,263904,295948
1630067054549,37831,263873,295934
1630067054559,37820,263849,295875
1630067054569,37803,263845,295881
1630067054579,37780,263867,295877
1630067054589,37779,263835,295897
1630067054599,37765,263856,295880
1630067054609,37756,263845,295871
1630067054619,37758,263811,295870
1630067054629,37757,263870,295892
1630067054639,37761,263861,295889
1630067054649,37765,263877,295873
1630067054659,37772,263884,295898
1630067054669,37785,263887,295902
1630067054679,37799,263925,295886
1630067054689,37816,263927,295921
1630067054699,37832,263940,295884
1630067054709,37845,263963,295904
1630067054719,37873,263952,295893
1630067054729,37886,263984,295876
1630067054739,37926,264010,295857
1630067054749,37939,264010,295892
1630067054759,37969,264048,295896
1630067054769,37991,264121,295911
1630067054779,38011,264108,295933
1630067054789,38038,264074,295924
1630067054799,38061,264147,295914
1630067054809,38092,264081,295955
1630067054819,38113,264128,295953
1630067054829,38140,264152,295948
1630067054839,38171,264157,295952
1630067054849,38199,264174,295934
1630067054859,38223,264167,295933
1630067054869,38244,264192,295938
1630067054879,38265,264219,295956
1630067054889,38294,264232,295951
1630067054899,38324,264256,295957
1630067054909,38351,264288,295987
1630067054919,38380,264315,295962
1630067054929,38419,264354,296026
1630067054939,38440,264356,296020
1630067054949,38470,264376,296030
1630067054959,38496,264397,296035
1630067054969,38522,264455,296011
1630067054979,38544,264406,296017
1630067054989,38557,264364,295999
1630067054999,38551,264289,295944
1630067055009,38526,264172,295934
1630067055019,38479,264065,295887
1630067055029,38411,264003,295854
1630067055039,38357,263889,295818
1630067055049,38286,263787,295789
1630067055059,38196,263743,295781
1630067055069,38128,263655,295749
1630067055079,38065,263635,295761
1630067055089,37993,263605,295737
1630067055099,37945,263555,295706
1630067055109,37899,263553,295697
1630067055119,37853,263503,295668
1630067055129,37817,263529,295679
1630067055139,37784,263510,295662
1630067055149,37748,263472,295676
1630067055159,37731,263441,295641
1630067055169,37695,263421,295666
1630067055179,37676,263452,295643
1630067055189,37657,263387,295636
1630067055199,37639,263363,295592
1630067055209,37624,263388,295626
1630067055219,37619,263413,295617
1630067055229,37614,263374,295599
1630067055239,37602,263388,295631
1630067055249,37622,263407,295631
1630067055259,37624,263455,295600
1630067055269,37622,263423,295604
1630067055279,37615,263397,295594
1630067055289,37610,263378,295599
1630067055299,37613,263389,295622
1630067055309,37610,263377,295599
1630067055319,37599,263384,295586
1630067055329,37606,263335,295591
1630067055339,37602,263311,295551
1630067055349,37593,263336,295596
1630067055359,37587,263352,295568
1630067055369,37597,263330,295572
1630067055379,37602,263349,295583
1630067055389,37606,263372,295571
1630067055399,37625,263374,295594
1630067055409,37641,263398,295580
1630067055419,37632,263417,295574
1630067055429,37657,263406,295574
1630067055439,37686,263428,295620
1630067055449,37699,263477,295629
1630067055459,37717,263466,295633
1630067055469,37739,263516,295632
1630067055479,37766,263518,295669
1630067055489,37789,263564,295666
1630067055499,37835,263590,295636
1630067055509,37858,263601,295684
1630067055519,37881,263575,295664
1630067055529,37919,263618,295707
1630067055539,37953,263670,295688
1630067055549,37976,263719,295748
1630067055559,38021,263759,295730
1630067055569,38051,263743,295780
1630067055579,38087,263781,295746
1630067055589,38104,263836,295768
1630067055599,38143,263879,295811
1630067055609,38170,263907,295799
1630067055619,38205,263954,295833
1630067055629,38235,263954,295851
1630067055639,38269,263959,295856
1630067055649,38296,263977,295891
1630067055659,38338,264024,295907
1630067055669,38371,264066,295879
1630067055679,38386,264071,295894
1630067055689,38416,264123,295931
1630067055699,38453,264151,295933
1630067055709,38491,264175,295949
1630067055719,38522,264192,295972
1630067055729,38562,264250,296023
1630067055739,38588,264271,296020
1630067055749,38622,264323,296062
1630067055759,38666,264398,296060
1630067055769,38705,264392,296077
1630067055779,38737,264472,296104
1630067055789,38770,264474,296116
1630067055799,38803,264477,296127
1630067055809,38821,264468,296137
1630067055819,38822,264387,296066
1630067055829,38796,264291,296067
1630067055839,38768,264177,295997
1630067055849,38710,264101,295985
1630067055859,38644,263996,295955
1630067055869,38578,263903,295909
1630067055879,38498,263805,295914
1630067055889,38431,263749,295885
1630067055899,38367,263712,295872
1630067055909,38305,263646,295862
1630067055919,38251,263652,295844
1630067055929,38209,263644,295840
1630067055939,38174,263603,295848
1630067055949,38150,263625,295864
1630067055959,38128,263609,295870
1630067055969,38103,263585,295840
1630067055979,38080,263604,295847
1630067055989,38057,263565,295806
1630067055999,38039,263575,295804
1630067056009,38024,263562,295811
1630067056019,38015,263550,295791
1630067056029,37997,263580,295828
1630067056039,38001,263560,295824
1630067056049,38000,263574,295786
1630067056059,38001,263592,295827
1630067056069,38011,263617,295799
1630067056079,38016,263607,295816
1630067056089,38017,263609,295794
1630067056099,38019,263582,295794
1630067056109,38015,263571,295790
1630067056119,38014,263590,295795
1630067056129,38005,263555,295809
1630067056139,38003,263593,295752
1630067056149,38010,263577,295760
1630067056159,38006,263547,295780
1630067056169,38002,263542,295761
1630067056179,37998,263546,295739
1630067056189,37995,263542,295762
1630067056199,38005,263561,295732
1630067056209,38009,263581,295778
1630067056219,38017,263584,295753
1630067056229,38026,263597,295762
1630067056239,38043,263597,295761
1630067056249,38061,263666,295794
1630067056259,38079,263680,295772
1630067056269,38102,263677,295799
1630067056279,38117,263741,295804
1630067056289,38143,263718,295843
1630067056299,38166,263785,295813
1630067056309,38201,263798,295845
1630067056319,38225,263856,295814
1630067056329,38248,263872,295851
1630067056339,38280,263881,295859
1630067056349,38306,263909,295859
1630067056359,38340,263940,295878
1630067056369,38362,263946,295879
1630067056379,38386,263957,295871
1630067056389,38415,263989,295892
1630067056399,38448,264036,295906
1630067056409,38478,264071,295911
1630067056419,38512,264079,295917
1630067056429,38538,264089,295919
1630067056439,38567,264132,295920
1630067056449,38607,264152,295945
1630067056459,38626,264154,295913
1630067056469,38669,264213,295929
1630067056479,38695,264177,295944
1630067056489,38728,264241,295944
1630067056499,38754,264233,295928
1630067056509,38782,264264,295996
1630067056519,38820,264295,295984
1630067056529,38852,264305,295974
1630067056539,38882,264329,295980
1630067056549,38898,264337,295992
1630067056559,38937,264357,295975
1630067056569,38963,264364,296008
1630067056579,38990,264406,296060
1630067056589,39030,264396,296011
1630067056599,39060,264435,296029
1630067056609,39097,264498,296025
1630067056619,39129,264485,296067
1630067056629,39171,264484,296052
1630067056639,39209,264563,296073
1630067056649,39244,264619,296076
1630067056659,39274,264656,296093
1630067056669,39308,264618,296100
1630067056679,39356,264693,296099
1630067056689,39404,264696,296140
1630067056699,39435,264712,296136
1630067056709,39440,264676,296123
1630067056719,39432,264540,296041
1630067056729,39410,264441,296015
1630067056739,39360,264341,295977
1630067056749,39314,264202,295921
1630067056759,39248,264095,295908
1630067056769,39183,264014,295911
1630067056779,39113,263936,295874
1630067056789,39048,263882,295864
1630067056799,38996,263821,295843
1630067056809,38932,263805,295828
1630067056819,38895,263799,295802
1630067056829,38858,263793,295784
1630067056839,38835,263797,295836
1630067056849,38804,263746,295824
1630067056859,38789,263763,295826
1630067056869,38757,263802,295819
1630067056879,38740,263796,295828
1630067056889,38734,263754,295784
1630067056899,38712,263774,295810
1630067056909,38712,263760,295794
1630067056919,38703,263764,295765
1630067056929,38707,263754,295855
1630067056939,38712,263822,295793
1630067056949,38725,263844,295834
1630067056959,38725,263842,295809
1630067056969,38742,263836,295826
1630067056979,38742,263857,295801
1630067056989,38733,263861,295832
1630067056999,38733,263865,295818
1630067057009,38733,263866,295825
1630067057019,38723,263858,295793
1630067057029,38712,263795,295802
1630067057039,38708,263835,295788
1630067057049,38705,263821,295787
1630067057059,38694,263777,295760
1630067057069,38686,263799,295756
1630067057079,38691,263797,295794
1630067057089,38685,263799,295769
1630067057099,38690,263796,295756
1630067057109,38698,263838,295776
1630067057119,38711,263816,295788
1630067057129,38731,263859,295763
1630067057139,38736,263910,295770
1630067057149,38747,263880,295753
1630067057159,38766,263869,295803
1630067057169,38797,263906,295793
1630067057179,38801,263973,295823
1630067057189,38829,263951,295826
1630067057199,38840,264027,295850
1630067057209,38865,264030,295834
1630067057219,38889,264045,295838
1630067057229,38920,264065,295884
1630067057239,38949,264076,295857
1630067057249,38971,264112,295904
1630067057259,39000,264144,295887
1630067057269,39020,264160,295887
1630067057279,39050,264195,295909
1630067057289,39063,264234,295928
1630067057299,39109,264263,295955
1630067057309,39130,264312,295942
1630067057319,39156,264342,295993
1630067057329,39185,264360,296013
1630067057339,39222,264422,295975
1630067057349,39253,264462,296061
1630067057359,39276,264464,296052
1630067057369,39307,264505,296067
1630067057379,39335,264561,296122
1630067057389,39373,264592,296124
1630067057399,39400,264626,296129
1630067057409,39434,264657,296157
1630067057419,39469,264693,296162
1630067057429,39496,264711,296148
1630067057439,39547,264780,296198
1630067057449,39573,264753,296192
1630067057459,39591,264842,296194
1630067057469,39631,264822,296227
1630067057479,39663,264881,296239
1630067057489,39690,264871,296250
1630067057499,39728,264957,296228
1630067057509,39763,264971,296250
1630067057519,39795,264951,296258
1630067057529,39824,264975,296267
1630067057539,39853,265025,296284
1630067057549,39889,265061,296305
1630067057559,39928,265116,296292
1630067057569,39966,265092,296287
1630067057579,39998,265126,296325
1630067057589,40030,265179,296321
1630067057599,40073,265263,296377
1630067057609,40119,265278,296364
1630067057619,40151,265294,296389
1630067057629,40179,265299,296399
1630067057639,40201,265221,296387
1630067057649,40197,265146,296284
1630067057659,40162,265048,296265
1630067057669,40120,264953,296198
1630067057679,40071,264775,296168
1630067057689,39994,264661,296112
1630067057699,39926,264532,296093
1630067057709,39850,264427,296042
1630067057719,39775,264361,296023
1630067057729,39712,264292,296020
1630067057739,39640,264221,296000
1630067057749,39584,264243,296010
1630067057759,39548,264203,295981
1630067057769,39509,264205,295993
1630067057779,39473,264202,295977
1630067057789,39449,264185,295954
1630067057799,39434,264200,295962
1630067057809,39408,264214,295999
1630067057819,39379,264163,295991
1630067057829,39362,264171,295963
1630067057839,39352,264192,295954
1630067057849,39339,264156,295950
1630067057859,39334,264180,295925
1630067057869,39317,264183,295948
1630067057879,39320,264204,295934
1630067057889,39330,264255,295955
1630067057899,39326,264237,295943
1630067057909,39331,264247,295925
1630067057919,39328,264243,295926
1630067057929,39319,264193,295921
1630067057939,39332,264236,295934
1630067057949,39321,264223,295915
1630067057959,39313,264204,295905
1630067057969,39311,264202,295890
1630067057979,39299,264180,295882
1630067057989,39297,264172,295852
1630067057999,39291,264104,295885
1630067058009,39279,264170,295863
1630067058019,39276,264171,295872
1630067058029,39276,264171,295858
1630067058039,39275,264203,295899
1630067058049,39281,264207,295896
1630067058059,39287,264211,295877
1630067058069,39285,264225,295933
1630067058079,39300,264190,295875
1630067058089,39319,264265,295913
1630067058099,39331,264297,295917
1630067058109,39351,264323,295910
1630067058119,39364,264320,295911
1630067058129,39380,264377,295954
1630067058139,39413,264364,295934
1630067058149,39430,264393,295914
1630067058159,39457,264419,295934
1630067058169,39474,264442,295975
1630067058179,39502,264481,295943
1630067058189,39528,264507,295997
1630067058199,39560,264526,296003
1630067058209,39590,264588,295978
1630067058219,39612,264580,296001
1630067058229,39642,264620,295990
1630067058239,39663,264621,296000
1630067058249,39698,264648,296011
1630067058259,39728,264643,296043
1630067058269,39759,264696,296041
1630067058279,39791,264708,296030
1630067058289,39815,264734,296033
1630067058299,39841,264720,296045
1630067058309,39871,264746,296039
1630067058319,39896,264756,296022
1630067058329,39924,264755,296029
1630067058339,39952,264801,296073
1630067058349,39986,264833,296063
1630067058359,40014,264793,296044
1630067058369,40042,264876,296044
1630067058379,40066,264851,296064
1630067058389,40096,264894,296111
1630067058399,40122,264896,296075
1630067058409,40147,264919,296097
1630067058419,40180,264913,296088
1630067058429,40219,264962,296112
1630067058439,40247,264980,296071
1630067058449,40267,264956,296111
1630067058459,40296,265010,296100
1630067058469,40334,265017,296099
1630067058479,40360,265092,296133
1630067058489,40398,265100,296138
1630067058499,40410,265113,296149
1630067058509,40453,265128,296165
1630067058519,40493,265186,296212
1630067058529,40521,265197,296163
1630067058539,40555,265200,296200
1630067058549,40588,265244,296177
1630067058559,40619,265202,296199
1630067058569,40638,265201,296137
1630067058579,40633,265147,296132
1630067058589,40599,264997,296062
1630067058599,40557,264875,296027
1630067058609,40498,264778,295994
1630067058619,40425,264694,295933
1630067058629,40341,264545,295908
1630067058639,40269,264443,295890
1630067058649,40190,264372,295864
1630067058659,40133,264333,295883
1630067058669,40070,264310,295880
1630067058679,40013,264283,295894
1630067058689,39968,264303,295881
1630067058699,39925,264322,295880
1630067058709,39895,264308,295892
1630067058719,39872,264390,295897
1630067058729,39862,264331,295883
1630067058739,39834,264356,295919
1630067058749,39813,264355,295926
1630067058759,39804,264386,295920
1630067058769,39790,264395,295894
1630067058779,39784,264391,295930
1630067058789,39775,264410,295942
1630067058799,39778,264463,295891
1630067058809,39782,264472,295890
1630067058819,39782,264466,295960
1630067058829,39783,264541,295939
1630067058839,39781,264502,295924
1630067058849,39787,264495,295936
1630067058859,39786,264518,295889
1630067058869,39788,264474,295878
1630067058879,39777,264460,295882
1630067058889,39762,264480,295861
1630067058899,39756,264462,295877
1630067058909,39734,264452,295863
1630067058919,39728,264445,295831
1630067058929,39709,264384,295835
1630067058939,39698,264409,295829
1630067058949,39698,264395,295814
1630067058959,39699,264393,295838
1630067058969,39698,264410,295811
1630067058979,39700,264396,295814
1630067058989,39703,264417,295866
1630067058999,39712,264442,295861
1630067059009,39727,264464,295846
1630067059019,39736,264496,295837
1630067059029,39740,264499,295840
1630067059039,39762,264528,295868
1630067059049,39780,264543,295892
1630067059059,39790,264546,295877
1630067059069,39814,264574,295863
1630067059079,39831,264619,295895
1630067059089,39854,264659,295865
1630067059099,39886,264669,295899
1630067059109,39901,264689,295905
1630067059119,39927,264745,295913
1630067059129,39945,264766,295922
1630067059139,39979,264772,295941
1630067059149,40001,264806,295934
1630067059159,40039,264835,295937
1630067059169,40053,264853,295979
1630067059179,40081,264873,295949
1630067059189,40106,264895,295977
1630067059199,40133,264932,295963
1630067059209,40160,264933,295996
1630067059219,40197,264940,295965
1630067059229,40218,264958,296004
1630067059239,40229,264977,295978
1630067059249,40273,265014,295992
1630067059259,40285,265018,296029
1630067059269,40318,265029,296031
1630067059279,40342,265059,296031
1630067059289,40363,265088,296027
1630067059299,40380,265091,296038
1630067059309,40408,265105,296013
1630067059319,40439,265142,296020
1630067059329,40473,265138,296065
1630067059339,40497,265175,296068
1630067059349,40527,265145,296076
1630067059359,40555,265207,296080
1630067059369,40588,265263,296085
1630067059379,40627,265274,296058
1630067059389,40649,265265,296060
1630067059399,40690,265321,296106
1630067059409,40703,265267,296092
1630067059419,40700,265208,296044
1630067059429,40683,265099,296019
1630067059439,40634,265054,295995
1630067059449,40599,264932,295898
1630067059459,40530,264768,295856
1630067059469,40437,264657,295821
1630067059479,40361,264539,295792
1630067059489,40276,264458,295747
1630067059499,40201,264364,295745
1630067059509,40130,264351,295734
1630067059519,40066,264305,295708
1630067059529,40000,264274,295716
1630067059539,39958,264231,295702
1630067059549,39904,264271,295685
1630067059559,39879,264223,295692
1630067059569,39844,264270,295749
1630067059579,39818,264246,295702
1630067059589,39789,264256,295695
1630067059599,39760,264256,295695
1630067059609,39745,264302,295672
1630067059619,39715,264254,295676
1630067059629,39705,264285,295693
1630067059639,39693,264254,295700
1630067059649,39693,264315,295675
1630067059659,39688,264324,295683
1630067059669,39688,264373,295714
1630067059679,39684,264394,295711
1630067059689,39688,264384,295719
1630067059699,39692,264360,295688
1630067059709,39683,264385,295674
1630067059719,39675,264322,295710
1630067059729,39662,264340,295659
1630067059739,39637,264324,295696
1630067059749,39625,264305,295627
1630067059759,39612,264295,295641
1630067059769,39587,264284,295625
1630067059779,39584,264318,295652
1630067059789,39584,264258,295655
1630067059799,39563,264269,295618
1630067059809,39553,264299,295647
1630067059819,39544,264284,295649
1630067059829,39550,264293,295637
1630067059839,39553,264300,295664
1630067059849,39559,264337,295655
1630067059859,39569,264371,295684
1630067059869,39587,264387,295633
1630067059879,39589,264365,295693
1630067059889,39610,264435,295705
1630067059899,39627,264427,295675
1630067059909,39633,264458,295692
1630067059919,39659,264510,295696
1630067059929,39688,264506,295698
1630067059939,39699,264542,295736
1630067059949,39728,264570,295740
1630067059959,39747,264607,295753
1630067059969,39771,264639,295771
1630067059979,39792,264669,295755
1630067059989,39819,264714,295798
1630067059999,39847,264724,295770
1630067060009,39867,264725,295812
1630067060019,39889,264762,295795
1630067060029,39934,264765,295810
1630067060039,39952,264785,295828
1630067060049,39971,264818,295808
1630067060059,40002,264857,295824
1630067060069,40023,264858,295810
1630067060079,40037,264875,295838
1630067060089,40070,264894,295879
1630067060099,40100,264919,295853
1630067060109,40107,264914,295850
1630067060119,40142,264965,295848
1630067060129,40165,264982,295816
1630067060139,40187,264968,295853
1630067060149,40215,265012,295841
1630067060159,40239,265003,295901
1630067060169,40266,265033,295884
1630067060179,40290,265049,295914
1630067060189,40329,265056,295912
1630067060199,40343,265108,295935
1630067060209,40384,265154,295915
1630067060219,40419,265165,295940
1630067060229,40451,265224,295945
1630067060239,40465,265223,295970
1630067060249,40497,265216,295934
1630067060259,40509,265180,295936
1630067060269,40481,265088,295911
1630067060279,40449,264980,295837
1630067060289,40393,264875,295828
1630067060299,40323,264761,295788
1630067060309,40234,264618,295723
1630067060319,40144,264488,295683
1630067060329,40047,264363,295652
1630067060339,39957,264307,295633
1630067060349,39866,264208,295590
1630067060359,39788,264206,295577
1630067060369,39721,264133,295572
1630067060379,39649,264125,295563
1630067060389,39601,264106,295527
1630067060399,39554,264085,295538
1630067060409,39514,264127,295560
1630067060419,39467,264084,295543
1630067060429,39440,264084,295540
1630067060439,39421,264080,295542
1630067060449,39378,264049,295535
1630067060459,39352,264075,295555
1630067060469,39336,264065,295511
1630067060479,39307,264089,295517
1630067060489,39290,264073,295542
1630067060499,39292,264095,295518
1630067060509,39283,264117,295543
1630067060519,39283,264127,295517
1630067060529,39280,264118,295514
1630067060539,39265,264157,295523
1630067060549,39263,264154,295494
1630067060559,39252,264113,295482
1630067060569,39238,264133,295505
1630067060579,39234,264090,295482
1630067060589,39223,264104,295518
1630067060599,39191,264080,295489
1630067060609,39188,264076,295469
1630067060619,39168,264087,295481
1630067060629,39162,264078,295483
1630067060639,39142,264082,295467
1630067060649,39136,264070,295468
1630067060659,39128,264088,295506
1630067060669,39126,264073,295484
1630067060679,39138,264102,295481
1630067060689,39138,264075,295511
1630067060699,39143,264154,295488
1630067060709,39141,264141,295495
1630067060719,39155,264184,295521
1630067060729,39172,264232,295535
1630067060739,39193,264204,295528
1630067060749,39193,264258,295565
1630067060759,39216,264270,295570
1630067060769,39237,264289,295594
1630067060779,39254,264325,295547
1630067060789,39280,264359,295606
1630067060799,39298,264383,295571
1630067060809,39334,264393,295575
1630067060819,39355,264410,295629
1630067060829,39381,264464,295603
1630067060839,39411,264453,295631
1630067060849,39433,264500,295649
1630067060859,39460,264513,295651
1630067060869,39504,264583,295697
1630067060879,39515,264557,295684
1630067060889,39556,264588,295711
1630067060899,39568,264613,295685
1630067060909,39602,264623,295690
1630067060919,39635,264643,295690
1630067060929,39653,264663,295731
1630067060939,39686,264709,295717
1630067060949,39703,264729,295693
1630067060959,39730,264675,295729
1630067060969,39762,264735,295725
1630067060979,39782,264737,295745
1630067060989,39806,264735,295757
1630067060999,39842,264774,295742
1630067061009,39861,264814,295764
1630067061019,39895,264821,295752
1630067061029,39914,264863,295752
1630067061039,39941,264898,295770
1630067061049,39970,264874,295804
1630067061059,40012,264896,295787
1630067061069,40042,264932,295804
1630067061079,40071,264973,295840
1630067061089,40105,264984,295863
1630067061099,40139,265013,295865
1630067061109,40173,265045,295848
1630067061119,40195,265000,295844
1630067061129,40193,264942,295828
1630067061139,40156,264854,295785
1630067061149,40125,264742,295727
1630067061159,40058,264581,295686
1630067061169,39976,264510,295623
1630067061179,39892,264339,295603
1630067061189,39801,264237,295533
1630067061199,39706,264170,295534
1630067061209,39628,264127,295469
1630067061219,39537,264030,295487
1630067061229,39470,264002,295470
1630067061239,39400,263961,295451
1630067061249,39351,263908,295456
1630067061259,39312,263925,295454
1630067061269,39267,263927,295452
1630067061279,39232,263930,295477
1630067061289,39204,263930,295446
1630067061299,39168,263898,295464
1630067061309,39146,263896,295420
1630067061319,39118,263907,295439
1630067061329,39105,263908,295437
1630067061339,39078,263874,295392
1630067061349,39064,263889,295407
1630067061359,39061,263862,295414
1630067061369,39053,263932,295436
1630067061379,39066,263907,295426
1630067061389,39049,263906,295447
1630067061399,39061,263900,295409
1630067061409,39045,263922,295422
1630067061419,39044,263933,295383
1630067061429,39039,263927,295366
1630067061439,39029,263914,295388
1630067061449,39018,263904,295399
1630067061459,39001,263888,295417
1630067061469,38992,263883,295395
1630067061479,38973,263869,295368
1630067061489,38970,263831,295397
1630067061499,38951,263871,295408
1630067061509,38941,263870,295384
1630067061519,38943,263876,295393
1630067061529,38951,263857,295400
1630067061539,38942,263887,295402
1630067061549,38951,263897,295410
1630067061559,38970,263894,295392
1630067061569,38976,263977,295410
1630067061579,38973,263973,295413
1630067061589,38989,263966,295418
1630067061599,38998,264034,295367
1630067061609,39015,264002,295443
1630067061619,39039,264067,295451
1630067061629,39060,264088,295453
1630067061639,39087,264095,295436
1630067061649,39117,264123,295476
1630067061659,39140,264144,295500
1630067061669,39155,264156,295514
1630067061679,39180,264183,295507
1630067061689,39201,264239,295520
1630067061699,39231,264239,295525
1630067061709,39263,264251,295551
1630067061719,39297,264280,295553
1630067061729,39311,264296,295544
1630067061739,39342,264306,295525
1630067061749,39373,264358,295560
1630067061759,39396,264346,295543
1630067061769,39421,264354,295545
1630067061779,39453,264367,295587
1630067061789,39480,264382,295546
1630067061799,39497,264396,295601
1630067061809,39509,264366,295568
1630067061819,39552,264440,295558
1630067061829,39586,264460,295617
1630067061839,39605,264462,295599
1630067061849,39629,264463,295570
1630067061859,39658,264475,295594
1630067061869,39681,264427,295615
1630067061879,39696,264472,295602
1630067061889,39736,264522,295637
1630067061899,39747,264529,295656
1630067061909,39775,264594,295660
1630067061919,39805,264550,295657
1630067061929,39839,264604,295628
1630067061939,39870,264642,295675
1630067061949,39895,264641,295678
1630067061959,39928,264708,295742
1630067061969,39959,264699,295704
1630067061979,39994,264722,295723
1630067061989,40033,264805,295761
1630067061999,40062,264841,295753
1630067062009,40092,264811,295752
1630067062019,40090,264730,295689
1630067062029,40065,264651,295672
1630067062039,40021,264576,295679
1630067062049,39983,264451,295609
1630067062059,39909,264336,295594
1630067062069,39837,264244,295526
1630067062079,39751,264184,295507
1630067062089,39664,264074,295490
1630067062099,39587,264017,295531
1630067062109,39523,263961,295503
1630067062119,39462,263980,295514
1630067062129,39394,263947,295475
1630067062139,39362,263912,295509
1630067062149,39322,263933,295474
1630067062159,39293,263973,295477
1630067062169,39260,263988,295512
1630067062179,39247,263998,295525
1630067062189,39228,264027,295520
1630067062199,39214,264011,295527
1630067062209,39187,264025,295544
1630067062219,39171,264058,295543
1630067062229,39170,264054,295583
1630067062239,39157,264112,295570
1630067062249,39164,264152,295631
1630067062259,39175,264207,295621
1630067062269,39171,264233,295613
1630067062279,39176,264252,295647
1630067062289,39173,264281,295609
1630067062299,39181,264227,295673
1630067062309,39183,264273,295628
1630067062319,39170,264258,295658
1630067062329,39163,264211,295648
1630067062339,39144,264213,295621
1630067062349,39135,264218,295617
1630067062359,39124,264210,295627
1630067062369,39108,264192,295623
1630067062379,39093,264225,295602
1630067062389,39094,264182,295620
1630067062399,39088,264200,295622
1630067062409,39083,264170,295636
1630067062419,39089,264243,295656
1630067062429,39101,264260,295631
1630067062439,39104,264268,295628
1630067062449,39114,264307,295673
1630067062459,39144,264307,295677
1630067062469,39152,264348,295632
1630067062479,39163,264335,295690
1630067062489,39184,264393,295727
1630067062499,39203,264408,295700
1630067062509,39225,264421,295696
1630067062519,39246,264424,295719
1630067062529,39276,264496,295727
1630067062539,39291,264514,295748
1630067062549,39318,264533,295732
1630067062559,39347,264586,295761
1630067062569,39375,264567,295782
1630067062579,39405,264641,295793
1630067062589,39423,264664,295793
1630067062599,39453,264690,295805
1630067062609,39483,264733,295818
1630067062619,39521,264728,295815
1630067062629,39554,264751,295855
1630067062639,39564,264810,295869
1630067062649,39597,264795,295836
1630067062659,39628,264839,295835
1630067062669,39665,264853,295860
1630067062679,39684,264868,295876
1630067062689,39704,264883,295883
1630067062699,39739,264921,295880
1630067062709,39767,264957,295875
1630067062719,39798,264945,295909
1630067062729,39822,264983,295911
1630067062739,39848,265022,295927
1630067062749,39885,264981,295899
1630067062759,39907,265070,295914
1630067062769,39936,265073,295926
1630067062779,39984,265063,295968
1630067062789,39999,265130,295942
1630067062799,40022,265127,295981
1630067062809,40057,265102,295972
1630067062819,40097,265171,296009
1630067062829,40112,265206,295997
1630067062839,40153,265226,296006
1630067062849,40185,265251,296008
1630067062859,40224,265291,296022
1630067062869,40249,265321,296031
1630067062879,40281,265332,296061
1630067062889,40321,265410,296066
1630067062899,40356,265417,296078
1630067062909,40386,265404,296079
1630067062919,40401,265352,296057
1630067062929,40395,265247,295987
1630067062939,40356,265127,295928
1630067062949,40311,265004,295956
1630067062959,40250,264870,295845
1630067062969,40177,264753,295829
1630067062979,40081,264671,295751
1630067062989,40008,264498,295744
1630067062999,39932,264445,295715
1630067063009,39867,264339,295675
1630067063019,39795,264315,295647
1630067063029,39741,264243,295667
1630067063039,39677,264251,295621
1630067063049,39643,264254,295643
1630067063059,39612,264239,295645
1630067063069,39582,264215,295634
1630067063079,39550,264206,295635
1630067063089,39520,264167,295609
1630067063099,39518,264191,295590
1630067063109,39483,264176,295604
1630067063119,39454,264179,295573
1630067063129,39440,264183,295609
1630067063139,39424,264134,295564
1630067063149,39418,264136,295589
1630067063159,39422,264161,295538
1630067063169,39415,264175,295570
1630067063179,39418,264226,295601
1630067063189,39413,264202,295575
1630067063199,39414,264213,295557
1630067063209,39413,264139,295550
1630067063219,39400,264118,295476
1630067063229,39395,264074,295416
1630067063239,39373,264003,295351
1630067063249,39349,263902,295251
1630067063259,39329,263808,295172
1630067063269,39313,263673,295029
1630067063279,39289,263578,294951
1630067063289,39274,263470,294857
1630067063299,39261,263391,294767
1630067063309,39250,263340,294721
1630067063319,39232,263299,294682
1630067063329,39242,263237,294633
1630067063339,39223,263248,294612
1630067063349,39234,263202,294602
1630067063359,39239,263241,294605
1630067063369,39252,263216,294545
1630067063379,39266,263242,294583
1630067063389,39282,263257,294598
1630067063399,39292,263297,294574
1630067063409,39310,263297,294599
1630067063419,39335,263329,294632
1630067063429,39373,263387,294657
1630067063439,39391,263404,294671
1630067063449,39418,263415,294670
1630067063459,39446,263463,294658
1630067063469,39464,263527,294702
1630067063479,39496,263528,294680
1630067063489,39516,263560,294704
1630067063499,39543,263540,294674
1630067063509,39573,263533,294684
1630067063519,39590,263546,294674
1630067063529,39612,263566,294627
1630067063539,39630,263471,294614
1630067063549,39645,263453,294573
1630067063559,39682,263428,294513
1630067063569,39689,263369,294431
1630067063579,39713,263314,294403
1630067063589,39729,263233,294319
1630067063599,39765,263199,294208
1630067063609,39775,263122,294163
1630067063619,39782,262997,294058
1630067063629,39804,262881,293942
1630067063639,39814,262860,293864
1630067063649,39819,262707,293736
1630067063659,39833,262646,293642
1630067063669,39855,262574,293555
1630067063679,39854,262475,293422
1630067063689,39860,262362,293324
1630067063699,39874,262291,293256
1630067063709,39889,262209,293189
1630067063719,39906,262141,293116
1630067063729,39924,262118,293039
1630067063739,39952,262046,292967
1630067063749,39984,261998,292953
1630067063759,40012,262004,292905
1630067063769,40037,261994,292848
1630067063779,40070,261983,292843
1630067063789,40107,262042,292846
1630067063799,40130,262017,292815
1630067063809,40159,261932,292817
1630067063819,40168,261868,292722
1630067063829,40142,261749,292674
1630067063839,40106,261571,292572
1630067063849,40058,261405,292516
1630067063859,39976,261254,292465
1630067063869,39909,261115,292386
1630067063879,39839,260974,292342
1630067063889,39769,260903,292250
1630067063899,39700,260823,292236
1630067063909,39649,260786,292267
1630067063919,39604,260780,292218
1630067063929,39568,260739,292258
1630067063939,39538,260788,292270
1630067063949,39525,260857,292335
1630067063959,39526,260903,292378
1630067063969,39513,260957,292488
1630067063979,39520,261070,292585
1630067063989,39519,261174,292753
1630067063999,39542,261309,292879
1630067064009,39547,261490,293076
1630067064019,39568,261680,293194
1630067064029,39591,261858,293374
1630067064039,39622,262052,293615
1630067064049,39651,262294,293836
1630067064059,39678,262494,293987
1630067064069,39690,262667,294159
1630067064079,39714,262875,294306
1630067064089,39719,263022,294471
1630067064099,39736,263194,294627
1630067064109,39740,263369,294768
1630067064119,39754,263541,294974
1630067064129,39746,263693,295126
1630067064139,39750,263788,295262
1630067064149,39753,263951,295378
1630067064159,39756,264089,295531
1630067064169,39764,264266,295683
1630067064179,39773,264375,295773
1630067064189,39780,264520,295939
1630067064199,39793,264645,296043
1630067064209,39800,264722,296185
1630067064219,39820,264897,296256
1630067064229,39824,264984,296354
1630067064239,39833,265081,296451
1630067064249,39836,265193,296524
1630067064259,39848,265298,296591
1630067064269,39867,265418,296698
1630067064279,39883,265519,296784
1630067064289,39916,265642,296881
1630067064299,39936,265754,296928
1630067064309,39968,265872,297080
1630067064319,39987,265994,297159
1630067064329,40014,266119,297267
1630067064339,40046,266226,297337
1630067064349,40087,266327,297443
1630067064359,40102,266468,297514
1630067064369,40132,266597,297584
1630067064379,40171,266677,297655
1630067064389,40197,266773,297730
1630067064399,40242,266860,297857
1630067064409,40254,267001,297840
1630067064419,40302,267063,297939
1630067064429,40336,267112,298022
1630067064439,40364,267241,298052
1630067064449,40391,267283,298091
1630067064459,40437,267366,298190
1630067064469,40462,267399,298237
1630067064479,40508,267546,298322
1630067064489,40525,267624,298398
1630067064499,40559,267698,298403
1630067064509,40583,267806,298466
1630067064519,40603,267820,298523
1630067064529,40631,267918,298574
1630067064539,40657,268002,298640
1630067064549,40688,268054,298657
1630067064559,40715,268104,298702
1630067064569,40754,268161,298712
1630067064579,40787,268183,298756
1630067064589,40802,268260,298781
1630067064599,40841,268266,298779
1630067064609,40872,268334,298782
1630067064619,40901,268388,298811
1630067064629,40934,268377,298810
1630067064639,40937,268400,298816
1630067064649,40936,268304,298808
1630067064659,40904,268285,298718
1630067064669,40857,268201,298743
1630067064679,40803,268072,298714
1630067064689,40745,267994,298693
1630067064699,40664,267921,298690
1630067064709,40600,267836,298683
1630067064719,40536,267785,298636
1630067064729,40477,267722,298626
1630067064739,40425,267742,298623
1630067064749,40375,267637,298639
1630067064759,40337,267692,298604
1630067064769,40299,267618,298633
1630067064779,40270,267587,298555
1630067064789,40244,267587,298540
1630067064799,40220,267606,298493
1630067064809,40197,267581,298448
1630067064819,40190,267524,298463
1630067064829,40184,267536,298480
1630067064839,40168,267557,298432
1630067064849,40166,267499,298370
1630067064859,40161,267522,298346
1630067064869,40168,267550,298382
1630067064879,40171,267561,298327
1630067064889,40159,267527,298307
1630067064899,40161,267508,298299
1630067064909,40149,267459,298287
1630067064919,40134,267451,298232
1630067064929,40115,267404,298229
1630067064939,40105,267388,298204
1630067064949,40088,267368,298203
1630067064959,40070,267325,298171
1630067064969,40045,267293,298143
1630067064979,40033,267322,298175
1630067064989,40018,267294,298161
1630067064999,39993,267250,298141
1630067065009,39994,267276,298153
1630067065019,39988,267293,298108
1630067065029,39975,267279,298096
1630067065039,39983,267259,298134
1630067065049,39981,267265,298128
1630067065059,39993,267294,298103
1630067065069,39985,267288,298058
1630067065079,39994,267308,298074
1630067065089,40005,267296,298079
1630067065099,40012,267330,298092
1630067065109,40035,267323,298043
1630067065119,40036,267312,298042
1630067065129,40046,267313,298010
1630067065139,40055,267273,298026
1630067065149,40074,267324,297998
1630067065159,40098,267345,297961
1630067065169,40107,267318,297967
1630067065179,40126,267309,297938
1630067065189,40139,267303,297911
1630067065199,40163,267284,297932
1630067065209,40184,267315,297913
1630067065219,40199,267349,297934
1630067065229,40214,267284,297866
1630067065239,40243,267295,297835
1630067065249,40255,267281,297816
1630067065259,40272,267254,297837
1630067065269,40301,267252,297803
1630067065279,40310,267198,297769
1630067065289,40335,267232,297770
1630067065299,40349,267244,297755
1630067065309,40372,267249,297755
1630067065319,40403,267242,297743
1630067065329,40423,267238,297702
1630067065339,40448,267254,297707
1630067065349,40482,267290,297714
1630067065359,40510,267288,297703
1630067065369,40532,267313,297718
1630067065379,40552,267236,297687
1630067065389,40545,267200,297671
1630067065399,40531,267067,297590
1630067065409,40502,266967,297566
1630067065419,40440,266844,297494
1630067065429,40381,266734,297459
1630067065439,40302,266594,297367
1630067065449,40216,266490,297305
1630067065459,40134,266355,297258
1630067065469,40050,266327,297224
1630067065479,39978,266178,297194
1630067065489,39907,266164,297156
1630067065499,39845,266046,297102
1630067065509,39775,265994,297084
1630067065519,39727,265910,297010
1630067065529,39678,265887,296967
1630067065539,39620,265824,296923
1630067065549,39596,265828,296935
1630067065559,39560,265796,296922
1630067065569,39523,265773,296905
1630067065579,39481,265748,296860
1630067065589,39443,265731,296813
1630067065599,39419,265713,296808
1630067065609,39370,265669,296791
1630067065619,39366,265683,296779
1630067065629,39343,265689,296750
1630067065639,39333,265708,296786
1630067065649,39329,265720,296775
1630067065659,39316,265716,296767
1630067065669,39295,265728,296767
1630067065679,39273,265667,296743
1630067065689,39252,265651,296700
1630067065699,39230,265572,296689
1630067065709,39212,265551,296649
1630067065719,39181,265520,296640
1630067065729,39150,265478,296606
1630067065739,39129,265449,296593
1630067065749,39108,265436,296567
1630067065759,39094,265380,296505
1630067065769,39058,265362,296523
1630067065779,39064,265355,296494
1630067065789,39043,265350,296436
1630067065799,39052,265316,296452
1630067065809,39039,265334,296449
1630067065819,39050,265334,296412
1630067065829,39046,265314,296410
1630067065839,39053,265353,296395
1630067065849,39071,265359,296427
1630067065859,39078,265383,296428
1630067065869,39088,265383,296419
1630067065879,39099,265391,296449
1630067065889,39130,265404,296434
1630067065899,39139,265418,296441
1630067065909,39169,265463,296445
1630067065919,39183,265488,296440
1630067065929,39204,265543,296459
1630067065939,39214,265522,296486
1630067065949,39246,265544,296456
1630067065959,39256,265560,296474
1630067065969,39278,265547,296496
1630067065979,39297,265663,296504
1630067065989,39324,265613,296502
1630067065999,39344,265644,296546
1630067066009,39355,265643,296532
1630067066019,39373,265638,296535
1630067066029,39391,265639,296530
1630067066039,39414,265631,296560
1630067066049,39425,265676,296532
1630067066059,39456,265734,296507
1630067066069,39466,265727,296578
1630067066079,39507,265733,296542
1630067066089,39520,265782,296615
1630067066099,39546,265798,296604
1630067066109,39577,265828,296633
1630067066119,39597,265823,296613
1630067066129,39609,265834,296615
1630067066139,39613,265803,296621
1630067066149,39592,265695,296534
1630067066159,39546,265626,296552
1630067066169,39478,265539,296504
1630067066179,39403,265385,296467
1630067066189,39321,265317,296417
1630067066199,39217,265226,296411
1630067066209,39124,265151,296420
1630067066219,39029,265100,296404
1630067066229,38940,265046,296392
1630067066239,38873,265029,296386
1630067066249,38787,264948,296328
1630067066259,38728,264925,296351
1630067066269,38660,264938,296363
1630067066279,38607,264943,296355
1630067066289,38548,264911,296359
1630067066299,38495,264855,296355
1630067066309,38437,264830,296296
1630067066319,38383,264794,296294
1630067066329,38333,264784,296305
1630067066339,38280,264788,296266
1630067066349,38232,264727,296258
1630067066359,38191,264712,296268
1630067066369,38160,264731,296243
1630067066379,38122,264734,296253
1630067066389,38099,264725,296246
1630067066399,38078,264727,296277
1630067066409,38074,264704,296241
1630067066419,38044,264716,296232
1630067066429,38027,264704,296244
1630067066439,38005,264697,296227
1630067066449,37976,264718,296226
1630067066459,37958,264672,296208
1630067066469,37940,264674,296195
1630067066479,37919,264644,296218
1630067066489,37897,264575,296191
1630067066499,37886,264612,296142
1630067066509,37865,264615,296125
1630067066519,37849,264568,296124
1630067066529,37825,264578,296188
1630067066539,37822,264584,296138
1630067066549,37812,264600,296128
1630067066559,37812,264562,296134
1630067066569,37822,264637,296146
1630067066579,37823,264611,296166
1630067066589,37823,264634,296146
1630067066599,37830,264623,296190
1630067066609,37851,264642,296176
1630067066619,37853,264657,296227
1630067066629,37875,264731,296206
1630067066639,37886,264753,296247
1630067066649,37912,264799,296294
1630067066659,37932,264867,296330
1630067066669,37956,264923,296359
1630067066679,37989,264984,296430
1630067066689,38011,265047,296497
1630067066699,38033,265108,296492
1630067066709,38059,265122,296538
1630067066719,38094,265153,296554
1630067066729,38105,265234,296591
1630067066739,38131,265224,296595
1630067066749,38159,265311,296675
1630067066759,38177,265300,296673
1630067066769,38194,265302,296687
1630067066779,38220,265370,296709
1630067066789,38238,265393,296678
1630067066799,38264,265464,296718
1630067066809,38300,265494,296740
1630067066819,38320,265511,296748
1630067066829,38351,265478,296749
1630067066839,38391,265547,296780
1630067066849,38419,265628,296829
1630067066859,38448,265582,296807
1630067066869,38467,265631,296869
1630067066879,38481,265609,296860
1630067066889,38456,265570,296816
1630067066899,38451,265475,296777
1630067066909,38398,265395,296778
1630067066919,38335,265319,296768
1630067066929,38259,265266,296758
1630067066939,38170,265138,296746
1630067066949,38081,265085,296719
1630067066959,37994,265065,296736
1630067066969,37909,265009,296693
1630067066979,37858,264928,296700
1630067066989,37776,264939,296679
1630067066999,37720,264903,296660
1630067067009,37665,264853,296640
1630067067019,37615,264850,296677
1630067067029,37555,264810,296648
1630067067039,37510,264790,296653
1630067067049,37456,264763,296617
1630067067059,37405,264755,296627
1630067067069,37367,264717,296623
1630067067079,37316,264693,296598
1630067067089,37277,264618,296569
1630067067099,37229,264649,296559
1630067067109,37211,264646,296564
1630067067119,37197,264649,296603
1630067067129,37186,264685,296596
1630067067139,37170,264663,296558
1630067067149,37175,264660,296583
1630067067159,37163,264687,296555
1630067067169,37155,264649,296552
1630067067179,37147,264632,296543
1630067067189,37152,264616,296560
1630067067199,37145,264626,296542
1630067067209,37133,264598,296532
1630067067219,37108,264585,296525
1630067067229,37104,264578,296505
1630067067239,37090,264554,296495
1630067067249,37085,264523,296517
1630067067259,37071,264524,296471
1630067067269,37075,264531,296501
1630067067279,37076,264501,296456
1630067067289,37077,264538,296488
1630067067299,37084,264504,296475
1630067067309,37097,264508,296456
1630067067319,37104,264507,296460
1630067067329,37111,264498,296463
1630067067339,37136,264503,296469
1630067067349,37158,264504,296424
1630067067359,37170,264503,296462
1630067067369,37200,264501,296446
1630067067379,37196,264545,296435
1630067067389,37232,264540,296421
1630067067399,37243,264563,296427
1630067067409,37264,264572,296448
1630067067419,37301,264609,296436
1630067067429,37323,264608,296450
1630067067439,37348,264621,296448
1630067067449,37368,264611,296438
1630067067459,37400,264613,296429
1630067067469,37434,264626,296458
1630067067479,37450,264686,296433
1630067067489,37489,264662,296436
1630067067499,37514,264708,296441
1630067067509,37539,264723,296446
1630067067519,37567,264734,296427
1630067067529,37591,264700,296432
1630067067539,37621,264784,296469
1630067067549,37644,264743,296445
1630067067559,37673,264767,296427
1630067067569,37693,264795,296482
1630067067579,37723,264782,296450
1630067067589,37744,264787,296427
1630067067599,37784,264814,296487
1630067067609,37807,264863,296480
1630067067619,37844,264859,296517
1630067067629,37882,264874,296485
1630067067639,37905,264904,296515
1630067067649,37944,264914,296542
1630067067659,37967,264890,296531
1630067067669,38017,264946,296527
1630067067679,38035,264963,296569
1630067067689,38079,264967,296533
1630067067699,38115,264994,296552
1630067067709,38139,265029,296551
1630067067719,38192,265030,296531
1630067067729,38216,265046,296565
1630067067739,38263,265068,296541
1630067067749,38299,265086,296560
1630067067759,38327,265125,296592
1630067067769,38365,265151,296622
1630067067779,38408,265145,296604
1630067067789,38451,265200,296646
1630067067799,38489,265208,296606
1630067067809,38531,265184,296572
1630067067819,38568,265215,296599
1630067067829,38610,265251,296608
1630067067839,38650,265330,296632
1630067067849,38693,265337,296628
1630067067859,38724,265357,296624
1630067067869,38757,265308,296637
1630067067879,38772,265260,296581
1630067067889,38763,265189,296555
1630067067899,38733,265046,296450
1630067067909,38683,264900,296409
1630067067919,38622,264819,296357
1630067067929,38533,264687,296347
1630067067939,38454,264620,296323
1630067067949,38382,264515,296271
1630067067959,38289,264419,296263
1630067067969,38218,264393,296266
1630067067979,38146,264331,296248
1630067067989,38089,264284,296203
1630067067999,38033,264277,296217
1630067068009,37988,264219,296186
1630067068019,37950,264193,296157
1630067068029,37912,264175,296206
1630067068039,37873,264160,296171
1630067068049,37835,264147,296147
1630067068059,37798,264111,296146
1630067068069,37763,264084,296131
1630067068079,37737,264071,296142
1630067068089,37700,264008,296143
1630067068099,37680,264035,296073
1630067068109,37655,263995,296121
1630067068119,37659,264036,296103
1630067068129,37647,264023,296082
1630067068139,37624,264011,296131
1630067068149,37641,263997,296084
1630067068159,37630,264012,296089
1630067068169,37626,264016,296096
1630067068179,37621,263956,296073
1630067068189,37619,263987,296048
1630067068199,37599,263979,296029
1630067068209,37595,263965,296007
1630067068219,37596,263976,296011
1630067068229,37583,263916,296008
1630067068239,37578,263933,296039
1630067068249,37573,263932,296015
1630067068259,37572,263903,296027
1630067068269,37559,263908,296037
1630067068279,37566,263921,296011
1630067068289,37575,263925,296000
1630067068299,37589,263938,296000
1630067068309,37586,263934,295999
1630067068319,37606,263961,296010
1630067068329,37620,263959,296058
1630067068339,37624,263984,296011
1630067068349,37641,263992,296048
1630067068359,37672,263997,296039
1630067068369,37696,264022,296028
1630067068379,37712,264053,296067
1630067068389,37740,264046,296040
1630067068399,37751,264070,296053
1630067068409,37782,264063,296068
1630067068419,37814,264112,296084
1630067068429,37839,264146,296080
1630067068439,37866,264190,296067
1630067068449,37900,264165,296078
1630067068459,37920,264169,296072
1630067068469,37953,264204,296094
1630067068479,37988,264254,296147
1630067068489,38009,264233,296121
1630067068499,38039,264311,296141
1630067068509,38070,264328,296153
1630067068519,38102,264305,296163
1630067068529,38134,264303,296143
1630067068539,38159,264344,296130
1630067068549,38188,264355,296155
1630067068559,38218,264373,296163
1630067068569,38244,264400,296150
1630067068579,38279,264394,296210
1630067068589,38310,264453,296177
1630067068599,38348,264429,296204
1630067068609,38375,264457,296207
1630067068619,38417,264504,296225
1630067068629,38442,264479,296231
1630067068639,38468,264534,296215
1630067068649,38511,264524,296215
1630067068659,38549,264556,296229
1630067068669,38586,264589,296244
1630067068679,38623,264634,296262
1630067068689,38655,264646,296280
1630067068699,38688,264642,296272
1630067068709,38723,264736,296254
1630067068719,38763,264708,296281
1630067068729,38801,264741,296275
1630067068739,38847,264735,296300
1630067068749,38883,264766,296313
1630067068759,38916,264809,296308
1630067068769,38960,264814,296299
1630067068779,39003,264818,296326
1630067068789,39036,264902,296335
1630067068799,39079,264881,296318
1630067068809,39110,264912,296339
1630067068819,39159,264960,296364
1630067068829,39199,264950,296379
1630067068839,39243,264978,296353
1630067068849,39287,265020,296368
1630067068859,39327,265028,296385
1630067068869,39363,265065,296370
1630067068879,39407,265072,296401
1630067068889,39448,265081,296423
1630067068899,39481,265069,296403
1630067068909,39521,265152,296425
1630067068919,39569,265157,296431
1630067068929,39610,265138,296437
1630067068939,39658,265199,296458
1630067068949,39691,265205,296449
1630067068959,39727,265241,296491
1630067068969,39770,265274,296476
1630067068979,39807,265301,296483
1630067068989,39849,265349,296501
1630067068999,39899,265359,296517
1630067069009,39929,265398,296522
1630067069019,39982,265391,296519
1630067069029,40010,265408,296528
1630067069039,40010,265300,296458
1630067069049,40008,265187,296364
1630067069059,39986,265088,296366
1630067069069,39949,264964,296329
1630067069079,39893,264818,296274
1630067069089,39840,264719,296248
1630067069099,39784,264598,296227
1630067069109,39730,264552,296218
1630067069119,39672,264533,296192
1630067069129,39627,264498,296189
1630067069139,39572,264435,296153
1630067069149,39539,264397,296155
1630067069159,39510,264402,296161
1630067069169,39501,264412,296178
1630067069179,39458,264385,296182
1630067069189,39447,264366,296180
1630067069199,39429,264374,296162
1630067069209,39408,264404,296182
1630067069219,39398,264354,296127
1630067069229,39378,264345,296115
1630067069239,39375,264323,296145
1630067069249,39361,264333,296142
1630067069259,39351,264336,296155
1630067069269,39358,264345,296189
1630067069279,39354,264370,296118
1630067069289,39358,264364,296156
1630067069299,39360,264414,296152
1630067069309,39347,264374,296147
1630067069319,39357,264375,296158
1630067069329,39357,264349,296150
1630067069339,39351,264348,296130
1630067069349,39341,264397,296139
1630067069359,39346,264369,296136
1630067069369,39345,264377,296122
1630067069379,39344,264377,296133
1630067069389,39340,264375,296133
1630067069399,39347,264332,296103
1630067069409,39340,264362,296106
1630067069419,39354,264343,296109
1630067069429,39353,264339,296117
1630067069439,39365,264364,296119
1630067069449,39374,264318,296104
1630067069459,39376,264374,296116
1630067069469,39383,264369,296138
1630067069479,39398,264386,296102
1630067069489,39414,264381,296132
1630067069499,39432,264444,296096
1630067069509,39446,264412,296139
1630067069519,39464,264458,296150
1630067069529,39484,264461,296130
1630067069539,39504,264510,296155
1630067069549,39551,264513,296177
1630067069559,39562,264537,296159
1630067069569,39589,264532,296152
1630067069579,39622,264575,296156
1630067069589,39638,264592,296173
1630067069599,39663,264636,296186
1630067069609,39695,264665,296200
1630067069619,39730,264663,296200
1630067069629,39760,264677,296171
1630067069639,39788,264734,296204
1630067069649,39798,264736,296233
1630067069659,39827,264723,296203
1630067069669,39863,264785,296242
1630067069679,39886,264799,296208
1630067069689,39911,264835,296259
1630067069699,39942,264789,296272
1630067069709,39971,264888,296280
1630067069719,40000,264875,296256
1630067069729,40031,264876,296243
1630067069739,40067,264906,296259
1630067069749,40095,264918,296286
1630067069759,40126,264959,296312
1630067069769,40157,264982,296300
1630067069779,40184,265009,296290
1630067069789,40222,265005,296311
1630067069799,40240,265023,296334
1630067069809,40280,265045,296312
1630067069819,40319,265076,296345
1630067069829,40351,265129,296327
1630067069839,40386,265177,296361
1630067069849,40407,265170,296369
1630067069859,40442,265151,296380
1630067069869,40477,265160,296387
1630067069879,40510,265210,296388
1630067069889,40541,265233,296415
1630067069899,40592,265278,296390
1630067069909,40629,265281,296411
1630067069919,40668,265359,296397
1630067069929,40695,265327,296429
1630067069939,40730,265367,296402
1630067069949,40779,265418,296430
1630067069959,40805,265445,296438
1630067069969,40848,265436,296449
1630067069979,40879,265415,296477
1630067069989,40910,265466,296464
1630067069999,40943,265508,296456
1630067070009,40981,265503,296462
1630067070019,40764,265498,296455
1630067070029,40803,265555,296482
1630067070039,40838,265562,296454
1630067070049,40873,265609,296496
1630067070059,40924,265648,296475
1630067070069,40961,265630,296494
1630067070079,41009,265660,296536
1630067070089,41040,265705,296498
1630067070099,41076,265687,296513
1630067070109,41111,265705,296481
1630067070119,41138,265676,296490
1630067070129,41149,265597,296420
1630067070139,41147,265552,296411
1630067070149,41107,265405,296356
1630067070159,41069,265284,296312
1630067070169,41029,265136,296296
1630067070179,40977,265066,296234
1630067070189,40922,264942,296192
1630067070199,40871,264874,296203
1630067070209,40837,264793,296168
1630067070219,40785,264748,296161
1630067070229,40742,264745,296171
1630067070239,40717,264715,296171
1630067070249,40682,264717,296167
1630067070259,40660,264724,296190
1630067070269,40651,264699,296155
1630067070279,40626,264679,296215
1630067070289,40616,264729,296192
1630067070299,40603,264691,296182
1630067070309,40584,264751,296161
1630067070319,40580,264742,296193
1630067070329,40564,264712,296177
1630067070339,40558,264762,296167
1630067070349,40548,264754,296157
1630067070359,40559,264771,296191
1630067070369,40557,264785,296202
1630067070379,40564,264835,296199
1630067070389,40576,264838,296209
1630067070399,40576,264832,296177
1630067070409,40577,264853,296184
1630067070419,40586,264843,296196
1630067070429,40575,264847,296168
1630067070439,40577,264816,296195
1630067070449,40564,264774,296156
1630067070459,40562,264780,296137
1630067070469,40543,264792,296175
1630067070479,40534,264765,296172
1630067070489,40532,264760,296156
1630067070499,40518,264772,296145
1630067070509,40510,264797,296109
1630067070519,40506,264787,296148
1630067070529,40509,264824,296148
1630067070539,40505,264853,296162
1630067070549,40518,264825,296135
1630067070559,40518,264839,296162
1630067070569,40523,264852,296126
1630067070579,40548,264868,296185
1630067070589,40544,264882,296175
1630067070599,40556,264909,296156
1630067070609,40582,264931,296179
1630067070619,40582,264949,296184
1630067070629,40596,265001,296207
1630067070639,40624,265016,296186
1630067070649,40638,264990,296240
1630067070659,40650,265046,296228
1630067070669,40671,265096,296201
1630067070679,40693,265090,296219
1630067070689,40714,265135,296208
1630067070699,40733,265122,296229
1630067070709,40763,265131,296264
1630067070719,40791,265180,296271
1630067070729,40812,265245,296230
1630067070739,40844,265229,296251
1630067070749,40874,265206,296228
1630067070759,40884,265274,296260
1630067070769,40912,265278,296233
1630067070779,40930,265282,296213
1630067070789,40954,265318,296211
1630067070799,40969,265321,296249
1630067070809,40990,265326,296256
1630067070819,41012,265341,296270
1630067070829,41034,265338,296303
1630067070839,41064,265387,296284
1630067070849,41087,265377,296281
1630067070859,41109,265386,296252
1630067070869,41143,265440,296269
1630067070879,41163,265451,296309
1630067070889,41194,265427,296294
1630067070899,41206,265486,296312
1630067070909,41233,265536,296312
1630067070919,41266,265529,296292
1630067070929,41302,265534,296331
1630067070939,41321,265551,296323
1630067070949,41358,265574,296318
1630067070959,41373,265602,296316
1630067070969,41393,265645,296347
1630067070979,41429,265660,296385
1630067070989,41458,265643,296351
1630067070999,41481,265694,296354
1630067071009,41508,265675,296356
1630067071019,41534,265679,296371
1630067071029,41562,265695,296369
1630067071039,41598,265731,296343
1630067071049,41627,265785,296365
1630067071059,41665,265756,296379
1630067071069,41687,265785,296391
1630067071079,41713,265805,296432
1630067071089,41739,265855,296385
1630067071099,41774,265904,296406
1630067071109,41809,265882,296419
1630067071119,41834,265924,296443
1630067071129,41866,266008,296405
1630067071139,41889,266007,296424
1630067071149,41926,265985,296453
1630067071159,41937,265932,296403
1630067071169,41917,265850,296365
1630067071179,41898,265757,296291
1630067071189,41860,265649,296260
1630067071199,41802,265493,296232
1630067071209,41737,265332,296170
1630067071219,41661,265254,296156
1630067071229,41582,265145,296135
1630067071239,41511,265065,296138
1630067071249,41447,264999,296086
1630067071259,41390,264964,296081
1630067071269,41330,264926,296077
1630067071279,41272,264929,296062
1630067071289,41221,264919,296097
1630067071299,41182,264875,296053
1630067071309,41146,264913,296101
1630067071319,41115,264863,296096
1630067071329,41082,264860,296090
1630067071339,41057,264861,296047
1630067071349,41034,264865,296093
1630067071359,41003,264903,296055
1630067071369,40983,264894,296066
1630067071379,40961,264886,296061
1630067071389,40946,264888,296062
1630067071399,40932,264920,296073
1630067071409,40925,264909,296066
1630067071419,40929,264937,296067
1630067071429,40919,264980,296057
1630067071439,40911,264953,296046
1630067071449,40894,264928,296043
1630067071459,40878,264940,296057
1630067071469,40862,264913,296039
1630067071479,40849,264886,296052
1630067071489,40835,264896,296014
1630067071499,40814,264866,295984
1630067071509,40790,264867,296012
1630067071519,40785,264881,296035
1630067071529,40763,264853,295978
1630067071539,40736,264883,296003
1630067071549,40718,264888,296021
1630067071559,40706,264905,295986
1630067071569,40705,264865,295992
1630067071579,40697,264903,296018
1630067071589,40692,264870,295990
1630067071599,40691,264903,296012
1630067071609,40676,264925,296021
1630067071619,40685,264919,296063
1630067071629,40688,264975,296011
1630067071639,40695,264982,296062
1630067071649,40704,265033,296041
1630067071659,40711,265044,296054
1630067071669,40724,265065,296093
1630067071679,40749,265078,296063
1630067071689,40748,265159,296099
1630067071699,40766,265197,296115
1630067071709,40788,265193,296093
1630067071719,40793,265207,296122
1630067071729,40821,265238,296148
1630067071739,40843,265292,296122
1630067071749,40864,265293,296146
1630067071759,40869,265278,296146
1630067071769,40899,265337,296168
1630067071779,40908,265356,296144
1630067071789,40927,265361,296154
1630067071799,40947,265398,296154
1630067071809,40969,265401,296157
1630067071819,40986,265435,296149
1630067071829,41016,265474,296224
1630067071839,41028,265500,296176
1630067071849,41057,265510,296176
1630067071859,41079,265488,296194
1630067071869,41093,265499,296170
1630067071879,41102,265515,296199
1630067071889,41137,265538,296203
1630067071899,41166,265586,296153
1630067071909,41185,265581,296207
1630067071919,41212,265625,296198
1630067071929,41236,265617,296200
1630067071939,41248,265662,296243
1630067071949,41264,265665,296239
1630067071959,41296,265685,296219
1630067071969,41321,265668,296246
1630067071979,41345,265733,296213
1630067071989,41375,265753,296230
1630067071999,41401,265794,296222
1630067072009,41429,265815,296226
1630067072019,41452,265800,296229
1630067072029,41482,265814,296244
1630067072039,41509,265809,296232
1630067072049,41537,265875,296272
1630067072059,41561,265895,296258
1630067072069,41589,265885,296258
1630067072079,41623,265926,296279
1630067072089,41633,265956,296259
1630067072099,41668,265977,296289
1630067072109,41696,266006,296300
1630067072119,41730,266041,296304
1630067072129,41761,266090,296333
1630067072139,41785,266106,296341
1630067072149,41817,266114,296351
1630067072159,41854,266144,296368
1630067072169,41860,266093,296296
1630067072179,41863,266022,296270
1630067072189,41850,265871,296249
1630067072199,41793,265765,296168
1630067072209,41740,265656,296192
1630067072219,41651,265482,296134
1630067072229,41567,265343,296037
1630067072239,41483,265240,296045
1630067072249,41406,265171,296031
1630067072259,41305,265051,296015
1630067072269,41231,265007,295958
1630067072279,41159,264956,295967
1630067072289,41093,264962,295929
1630067072299,41030,264914,295940
1630067072309,40981,264941,295942
1630067072319,40934,264870,295964
1630067072329,40897,264863,295993
1630067072339,40866,264909,295948
1630067072349,40839,264908,295961
1630067072359,40808,264879,295918
1630067072369,40787,264870,295956
1630067072379,40765,264923,295933
1630067072389,40731,264844,295947
1630067072399,40705,264912,295969
1630067072409,40714,264896,295957
1630067072419,40708,264979,295919
1630067072429,40692,264974,295972
1630067072439,40686,265017,295970
1630067072449,40683,264985,295915
1630067072459,40667,264980,295979
1630067072469,40658,264975,295913
1630067072479,40653,264986,295910
1630067072489,40638,264937,295924
1630067072499,40617,264931,295943
1630067072509,40609,264937,295903
1630067072519,40586,264951,295909
1630067072529,40550,264905,295897
1630067072539,40543,264913,295878
1630067072549,40532,264914,295902
1630067072559,40514,264912,295928
1630067072569,40503,264873,295898
1630067072579,40492,264919,295920
1630067072589,40485,264899,295904
1630067072599,40472,264927,295850
1630067072609,40480,264953,295910
1630067072619,40477,264927,295894
1630067072629,40475,264950,295907
1630067072639,40483,264999,295875
1630067072649,40478,265009,295899
1630067072659,40510,265024,295941
1630067072669,40515,265027,295937
1630067072679,40526,265106,295911
1630067072689,40543,265083,295927
1630067072699,40558,265157,295942
1630067072709,40588,265135,295948
1630067072719,40588,265183,295953
1630067072729,40610,265189,295962
1630067072739,40635,265230,295950
1630067072749,40650,265228,295971
1630067072759,40684,265259,295980
1630067072769,40692,265307,295990
1630067072779,40719,265319,295998
1630067072789,40732,265360,295991
1630067072799,40755,265392,295999
1630067072809,40777,265379,296031
1630067072819,40806,265370,296010
1630067072829,40834,265460,296023
1630067072839,40854,265453,295991
1630067072849,40869,265504,296042
1630067072859,40906,265511,296000
1630067072869,40913,265507,296032
1630067072879,40943,265506,296056
1630067072889,40964,265591,296023
1630067072899,40996,265578,296022
1630067072909,41022,265582,296090
1630067072919,41041,265606,296063
1630067072929,41063,265607,296053
1630067072939,41089,265635,296068
1630067072949,41115,265690,296067
1630067072959,41134,265702,296079
1630067072969,41178,265712,296093
1630067072979,41184,265726,296058
1630067072989,41211,265755,296103
1630067072999,41241,265786,296094
1630067073009,41272,265767,296087
1630067073019,41297,265811,296118
1630067073029,41319,265798,296118
1630067073039,41343,265795,296137
1630067073049,41385,265862,296117
1630067073059,41405,265885,296138
1630067073069,41426,265884,296119
1630067073079,41463,265906,296152
1630067073089,41481,265930,296151
1630067073099,41516,265930,296159
1630067073109,41548,265960,296154
1630067073119,41585,266048,296155
1630067073129,41630,266047,296176
1630067073139,41653,266044,296141
1630067073149,41664,266055,296170
1630067073159,41656,265954,296096
1630067073169,41631,265857,296071
1630067073179,41603,265708,296057
1630067073189,41536,265638,296044
1630067073199,41466,265437,296023
1630067073209,41373,265341,295951
1630067073219,41273,265215,295891
1630067073229,41187,265090,295883
1630067073239,41099,265007,295854
1630067073249,41006,264941,295835
1630067073259,40936,264872,295841
1630067073269,40868,264851,295810
1630067073279,40813,264854,295829
1630067073289,40775,264846,295821
1630067073299,40723,264857,295840
1630067073309,40682,264878,295836
1630067073319,40664,264867,295808
1630067073329,40636,264825,295830
1630067073339,40594,264846,295816
1630067073349,40590,264839,295803
1630067073359,40568,264831,295792
1630067073369,40555,264871,295782
1630067073379,40529,264873,295811
1630067073389,40529,264889,295759
1630067073399,40530,264932,295811
1630067073409,40536,264898,295800
1630067073419,40543,264952,295821
1630067073429,40530,264922,295816
1630067073439,40520,264960,295769
1630067073449,40514,264914,295762
1630067073459,40521,264884,295789
1630067073469,40504,264909,295769
1630067073479,40481,264874,295778
1630067073489,40455,264885,295746
1630067073499,40431,264869,295753
1630067073509,40432,264836,295749
1630067073519,40415,264868,295701
1630067073529,40397,264807,295728
1630067073539,40374,264858,295714
1630067073549,40353,264832,295736
1630067073559,40355,264815,295709
1630067073569,40348,264841,295733
1630067073579,40346,264876,295715
1630067073589,40341,264875,295716
1630067073599,40348,264891,295714
1630067073609,40349,264907,295718
1630067073619,40364,264879,295737
1630067073629,40374,264947,295721
1630067073639,40384,264945,295724
1630067073649,40389,264961,295726
1630067073659,40406,264993,295717
1630067073669,40416,265003,295770
1630067073679,40443,265038,295743
1630067073689,40460,265054,295777
1630067073699,40476,265106,295766
1630067073709,40500,265070,295780
1630067073719,40511,265155,295778
1630067073729,40543,265161,295772
1630067073739,40558,265180,295761
1630067073749,40578,265211,295783
1630067073759,40601,265239,295791
1630067073769,40623,265244,295784
1630067073779,40643,265262,295810
1630067073789,40668,265250,295822
1630067073799,40707,265286,295821
1630067073809,40727,265338,295833
1630067073819,40755,265317,295836
1630067073829,40770,265342,295862
1630067073839,40796,265399,295816
1630067073849,40822,265382,295809
1630067073859,40842,265425,295805
1630067073869,40856,265426,295842
1630067073879,40881,265442,295822
1630067073889,40901,265500,295871
1630067073899,40922,265483,295849
1630067073909,40958,265522,295859
1630067073919,40977,265518,295881
1630067073929,40996,265559,295879
1630067073939,41028,265571,295886
1630067073949,41043,265566,295870
1630067073959,41086,265531,295854
1630067073969,41101,265611,295855
1630067073979,41123,265590,295898
1630067073989,41143,265569,295893
1630067073999,41178,265651,295869
1630067074009,41196,265652,295900
1630067074019,41237,265697,295910
1630067074029,41276,265736,295937
1630067074039,41298,265744,295916
1630067074049,41321,265751,295923
1630067074059,41341,265785,295881
1630067074069,41353,265705,295881
1630067074079,41352,265660,295867
1630067074089,41319,265535,295810
1630067074099,41286,265431,295785
1630067074109,41215,265283,295800
1630067074119,41132,265194,295717
1630067074129,41045,265090,295671
1630067074139,40971,264952,295640
1630067074149,40871,264873,295641
1630067074159,40799,264806,295662
1630067074169,40730,264729,295585
1630067074179,40666,264690,295596
1630067074189,40615,264709,295607
1630067074199,40567,264682,295580
1630067074209,40530,264696,295580
1630067074219,40497,264713,295611
1630067074229,40471,264711,295594
1630067074239,40451,264708,295615
1630067074249,40434,264753,295578
1630067074259,40410,264738,295589
1630067074269,40404,264738,295573
1630067074279,40388,264764,295606
1630067074289,40373,264792,295592
1630067074299,40376,264780,295594
1630067074309,40383,264847,295619
1630067074319,40386,264866,295619
1630067074329,40396,264882,295616
1630067074339,40388,264845,295590
1630067074349,40398,264854,295585
1630067074359,40376,264869,295590
1630067074369,40368,264833,295578
1630067074379,40355,264826,295586
1630067074389,40343,264785,295569
1630067074399,40333,264774,295543
1630067074409,40317,264775,295558
1630067074419,40296,264752,295538
1630067074429,40292,264720,295516
1630067074439,40274,264700,295514
1630067074449,40257,264686,295485
1630067074459,40241,264708,295532
1630067074469,40232,264727,295515
1630067074479,40221,264719,295531
1630067074489,40238,264773,295546
1630067074499,40229,264754,295532
1630067074509,40224,264767,295502
1630067074519,40249,264762,295526
1630067074529,40244,264809,295529
1630067074539,40254,264803,295539
1630067074549,40267,264832,295554
1630067074559,40279,264889,295548
1630067074569,40290,264863,295562
1630067074579,40306,264879,295566
1630067074589,40326,264924,295582
1630067074599,40348,264923,295572
1630067074609,40355,264965,295600
1630067074619,40385,264989,295566
1630067074629,40402,265001,295578
1630067074639,40421,265051,295584
1630067074649,40439,265064,295568
1630067074659,40463,265053,295604
1630067074669,40489,265068,295590
1630067074679,40493,265121,295623
1630067074689,40520,265140,295658
1630067074699,40543,265167,295632
1630067074709,40558,265179,295621
1630067074719,40591,265196,295643
1630067074729,40613,265202,295634
1630067074739,40636,265208,295627
1630067074749,40656,265256,295639
1630067074759,40662,265223,295618
1630067074769,40694,265214,295648
1630067074779,40705,265248,295633
1630067074789,40738,265282,295627
1630067074799,40747,265307,295661
1630067074809,40780,265364,295632
1630067074819,40791,265329,295659
1630067074829,40820,265394,295662
1630067074839,40837,265373,295659
1630067074849,40868,265378,295667
1630067074859,40899,265414,295696
1630067074869,40921,265450,295695
1630067074879,40951,265450,295684
1630067074889,40979,265509,295695
1630067074899,40993,265411,295678
1630067074909,40987,265318,295636
1630067074919,40952,265267,295573
1630067074929,40912,265174,295551
1630067074939,40844,265061,295552
1630067074949,40772,264952,295520
1630067074959,40697,264865,295492
1630067074969,40619,264744,295456
1630067074979,40546,264616,295434
1630067074989,40465,264617,295403
1630067074999,40393,264572,295415
1630067075009,40338,264560,295378
1630067075019,40301,264533,295384
1630067075029,40259,264546,295350
1630067075039,40229,264525,295419
1630067075049,40204,264537,295403
1630067075059,40183,264577,295399
1630067075069,40168,264543,295399
1630067075079,40168,264593,295408
1630067075089,40144,264572,295393
1630067075099,40146,264625,295402
1630067075109,40135,264595,295404
1630067075119,40136,264630,295402
1630067075129,40149,264674,295401
1630067075139,40163,264700,295422
1630067075149,40153,264698,295433
1630067075159,40181,264720,295437
1630067075169,40173,264696,295441
1630067075179,40178,264751,295414
1630067075189,40172,264718,295406
1630067075199,40160,264754,295387
1630067075209,40151,264725,295397
1630067075219,40143,264669,295389
1630067075229,40128,264667,295416
1630067075239,40112,264655,295381
1630067075249,40097,264640,295405
1630067075259,40086,264683,295349
1630067075269,40071,264648,295375
1630067075279,40060,264629,295366
1630067075289,40044,264642,295361
1630067075299,40050,264641,295400
1630067075309,40044,264650,295382
1630067075319,40054,264655,295392
1630067075329,40063,264712,295386
1630067075339,40056,264720,295401
1630067075349,40068,264755,295401
1630067075359,40074,264742,295383
1630067075369,40089,264761,295416
1630067075379,40110,264814,295434
1630067075389,40117,264822,295437
1630067075399,40153,264837,295479
1630067075409,40164,264859,295463
1630067075419,40173,264882,295462
1630067075429,40201,264922,295494
1630067075439,40218,264950,295488
1630067075449,40237,264954,295463
1630067075459,40269,265010,295489
1630067075469,40290,265003,295518
1630067075479,40303,265019,295515
1630067075489,40332,265072,295523
1630067075499,40357,265075,295525
1630067075509,40379,265088,295502
1630067075519,40399,265146,295539
1630067075529,40426,265118,295549
1630067075539,40451,265183,295533
1630067075549,40475,265171,295523
1630067075559,40492,265181,295520
1630067075569,40508,265207,295525
1630067075579,40543,265211,295563
1630067075589,40563,265224,295557
1630067075599,40584,265230,295571
1630067075609,40600,265223,295565
1630067075619,40624,265311,295584
1630067075629,40648,265317,295559
1630067075639,40676,265295,295598
1630067075649,40706,265346,295611
1630067075659,40727,265335,295629
1630067075669,40757,265419,295591
1630067075679,40781,265415,295615
1630067075689,40805,265426,295633
1630067075699,40815,265409,295626
1630067075709,40802,265291,295602
1630067075719,40775,265218,295562
1630067075729,40727,265119,295505
1630067075739,40663,264981,295473
1630067075749,40576,264845,295430
1630067075759,40500,264740,295412
1630067075769,40414,264659,295359
1630067075779,40325,264606,295355
1630067075789,40252,264538,295354
1630067075799,40182,264461,295325
1630067075809,40116,264452,295337
1630067075819,40059,264444,295281
1630067075829,39998,264399,295309
1630067075839,39951,264424,295287
1630067075849,39914,264390,295262
1630067075859,39877,264396,295293
1630067075869,39843,264393,295284
1630067075879,39805,264387,295250
1630067075889,39789,264336,295256
1630067075899,39756,264360,295274
1630067075909,39723,264340,295282
1630067075919,39711,264376,295251
1630067075929,39687,264347,295228
1630067075939,39668,264344,295233
1630067075949,39666,264396,295237
1630067075959,39659,264377,295261
1630067075969,39659,264372,295245
1630067075979,39647,264410,295236
1630067075989,39631,264396,295233
1630067075999,39615,264363,295208
1630067076009,39596,264389,295209
1630067076019,39578,264316,295233
1630067076029,39562,264304,295180
1630067076039,39533,264300,295164
1630067076049,39515,264306,295159
1630067076059,39486,264287,295179
1630067076069,39479,264295,295155
1630067076079,39454,264282,295175
1630067076089,39439,264295,295169
1630067076099,39417,264308,295166
1630067076109,39412,264304,295132
1630067076119,39406,264286,295185
1630067076129,39411,264324,295200
1630067076139,39402,264316,295169
1630067076149,39400,264346,295192
1630067076159,39401,264371,295184
1630067076169,39411,264371,295207
1630067076179,39417,264392,295224
1630067076189,39428,264435,295208
1630067076199,39439,264434,295212
1630067076209,39461,264432,295235
1630067076219,39478,264467,295231
1630067076229,39494,264453,295239
1630067076239,39510,264510,295267
1630067076249,39526,264505,295255
1630067076259,39551,264508,295254
1630067076269,39567,264581,295273
1630067076279,39587,264584,295260
1630067076289,39614,264579,295244
1630067076299,39622,264652,295282
1630067076309,39644,264670,295301
1630067076319,39668,264651,295303
1630067076329,39690,264651,295316
1630067076339,39708,264658,295305
1630067076349,39727,264719,295283
1630067076359,39755,264694,295294
1630067076369,39769,264718,295298
1630067076379,39798,264750,295315
1630067076389,39819,264765,295260
1630067076399,39846,264760,295309
1630067076409,39853,264809,295308
1630067076419,39875,264819,295341
1630067076429,39900,264827,295325
1630067076439,39927,264869,295330
1630067076449,39948,264894,295356
1630067076459,39972,264857,295369
1630067076469,40011,264883,295399
1630067076479,40030,264913,295383
1630067076489,40057,264931,295365
1630067076499,40075,264947,295375
1630067076509,40081,264878,295368
1630067076519,40053,264794,295311
1630067076529,40020,264676,295302
1630067076539,39968,264576,295256
1630067076549,39893,264506,295270
1630067076559,39817,264426,295199
1630067076569,39721,264367,295236
1630067076579,39650,264357,295263
1630067076589,39560,264304,295231
1630067076599,39478,264251,295238
1630067076609,39405,264266,295239
1630067076619,39344,264222,295278
1630067076629,39289,264280,295278
1630067076639,39239,264266,295308
1630067076649,39200,264312,295329
1630067076659,39160,264309,295345
1630067076669,39134,264305,295364
1630067076679,39097,264325,295370
1630067076689,39061,264341,295377
1630067076699,39029,264331,295352
1630067076709,39008,264347,295385
1630067076719,38982,264295,295376
1630067076729,38952,264364,295386
1630067076739,38917,264313,295347
1630067076749,38920,264325,295430
1630067076759,38907,264336,295397
1630067076769,38898,264340,295393
1630067076779,38873,264329,295329
1630067076789,38863,264330,295329
1630067076799,38845,264283,295351
1630067076809,38828,264274,295341
1630067076819,38812,264241,295345
1630067076829,38793,264255,295351
1630067076839,38777,264244,295315
1630067076849,38763,264241,295332
1630067076859,38750,264222,295319
1630067076869,38734,264235,295343
1630067076879,38724,264238,295302
1630067076889,38717,264222,295308
1630067076899,38708,264236,295333
1630067076909,38705,264216,295311
1630067076919,38705,264228,295310
1630067076929,38696,264275,295327
1630067076939,38705,264229,295327
1630067076949,38707,264239,295339
1630067076959,38718,264236,295319
1630067076969,38730,264236,295333
1630067076979,38736,264211,295333
1630067076989,38754,264266,295318
1630067076999,38761,264279,295345
1630067077009,38777,264290,295313
1630067077019,38786,264304,295334
1630067077029,38792,264345,295324
1630067077039,38827,264365,295304
1630067077049,38848,264339,295353
1630067077059,38871,264362,295330
1630067077069,38898,264417,295354
1630067077079,38907,264428,295378
1630067077089,38939,264459,295385
1630067077099,38956,264503,295485
1630067077109,38992,264528,295456
1630067077119,39006,264596,295503
1630067077129,39034,264605,295551
1630067077139,39057,264702,295614
1630067077149,39091,264755,295626
1630067077159,39118,264841,295699
1630067077169,39138,264964,295887
1630067077179,39192,265028,295882
1630067077189,39198,265076,295921
1630067077199,39216,265050,295948
1630067077209,39230,265123,295985
1630067077219,39279,265173,296048
1630067077229,39314,265261,296114
1630067077239,39341,265330,296157
1630067077249,39383,265367,296180
1630067077259,39403,265403,296242
1630067077269,39438,265497,296271
1630067077279,39468,265509,296303
1630067077289,39500,265540,296325
1630067077299,39535,265626,296334
1630067077309,39568,265669,296348
1630067077319,39600,265652,296391
1630067077329,39640,265713,296405
1630067077339,39682,265744,296427
1630067077349,39709,265768,296470
1630067077359,39759,265800,296428
1630067077369,39769,265794,296440
1630067077379,39775,265692,296392
1630067077389,39752,265654,296375
1630067077399,39725,265550,296325
1630067077409,39677,265430,296300
1630067077419,39619,265338,296265
1630067077429,39560,265231,296277
1630067077439,39491,265166,296228
1630067077449,39408,265094,296190
1630067077459,39347,265085,296163
1630067077469,39296,265020,296143
1630067077479,39240,264955,296123
1630067077489,39183,264957,296090
1630067077499,39144,264922,296096
1630067077509,39123,264912,296131
1630067077519,39089,264879,296084
1630067077529,39057,264834,296089
1630067077539,39037,264841,296048
1630067077549,39003,264820,296044
1630067077559,38972,264803,296022
1630067077569,38946,264774,296018
1630067077579,38932,264771,295995
1630067077589,38901,264753,295983
1630067077599,38885,264717,295967
1630067077609,38877,264745,295985
1630067077619,38880,264761,295986
1630067077629,38884,264751,295979
1630067077639,38877,264788,295962
1630067077649,38875,264756,295983
1630067077659,38874,264736,295927
1630067077669,38866,264716,295881
1630067077679,38857,264720,295882
1630067077689,38855,264672,295875
1630067077699,38845,264674,295850
1630067077709,38832,264655,295837
1630067077719,38819,264604,295838
1630067077729,38812,264581,295786
1630067077739,38793,264525,295769
1630067077749,38791,264559,295791
1630067077759,38787,264548,295737
1630067077769,38776,264506,295741
1630067077779,38787,264529,295728
1630067077789,38781,264540,295777
1630067077799,38792,264550,295771
1630067077809,38799,264558,295755
1630067077819,38813,264571,295758
1630067077829,38828,264560,295754
1630067077839,38830,264592,295752
1630067077849,38852,264603,295746
1630067077859,38869,264650,295770
1630067077869,38898,264656,295797
1630067077879,38922,264660,295797
1630067077889,38942,264681,295817
1630067077899,38966,264707,295804
1630067077909,38996,264739,295791
1630067077919,39019,264731,295805
1630067077929,39044,264759,295818
1630067077939,39077,264723,295803
1630067077949,39102,264770,295796
1630067077959,39134,264792,295811
1630067077969,39161,264788,295805
1630067077979,39189,264797,295827
1630067077989,39218,264831,295824
1630067077999,39245,264839,295791
1630067078009,39270,264836,295821
1630067078019,39288,264865,295809
1630067078029,39338,264879,295847
1630067078039,39358,264905,295835
1630067078049,39387,264905,295869
1630067078059,39412,264941,295869
1630067078069,39439,264941,295884
1630067078079,39478,265006,295914
1630067078089,39499,265006,295940
1630067078099,39533,265042,295928
1630067078109,39559,265011,295949
1630067078119,39588,265089,295934
1630067078129,39609,265056,295988
1630067078139,39641,265150,295988
1630067078149,39677,265178,296004
1630067078159,39703,265180,295985
1630067078169,39735,265173,296045
1630067078179,39777,265190,295982
1630067078189,39797,265225,296000
1630067078199,39832,265227,296003
1630067078209,39861,265250,295994
1630067078219,39884,265293,296009
1630067078229,39912,265257,295981
1630067078239,39939,265201,295927
1630067078249,39924,265118,295857
1630067078259,39898,264962,295827
1630067078269,39866,264878,295814
1630067078279,39821,264873,295782
1630067078289,39772,264755,295750
1630067078299,39720,264728,295744
1630067078309,39673,264633,295738
1630067078319,39617,264573,295730
1630067078329,39572,264542,295698
1630067078339,39527,264545,295703
1630067078349,39479,264542,295714
1630067078359,39460,264504,295708
1630067078369,39434,264514,295652
1630067078379,39425,264462,295730
1630067078389,39397,264481,295688
1630067078399,39373,264479,295658
1630067078409,39361,264469,295690
1630067078419,39349,264463,295696
1630067078429,39337,264461,295689
1630067078439,39321,264439,295661
1630067078449,39325,264474,295630
1630067078459,39315,264469,295662
1630067078469,39331,264521,295690
1630067078479,39334,264518,295656
1630067078489,39340,264524,295681
1630067078499,39342,264523,295675
1630067078509,39334,264486,295636
1630067078519,39341,264461,295623
1630067078529,39339,264494,295640
1630067078539,39338,264499,295618
1630067078549,39336,264511,295638
1630067078559,39334,264497,295632
1630067078569,39325,264489,295647
1630067078579,39319,264517,295631
1630067078589,39314,264487,295615
1630067078599,39310,264494,295630
1630067078609,39305,264469,295624
1630067078619,39309,264429,295634
1630067078629,39306,264487,295637
1630067078639,39327,264479,295623
1630067078649,39325,264521,295632
1630067078659,39322,264497,295636
1630067078669,39351,264522,295660
1630067078679,39365,264511,295631
1630067078689,39364,264508,295646
1630067078699,39391,264523,295605
1630067078709,39402,264549,295620
1630067078719,39429,264578,295614
1630067078729,39440,264584,295619
1630067078739,39462,264630,295651
1630067078749,39492,264648,295646
1630067078759,39511,264668,295650
1630067078769,39533,264672,295673
1630067078779,39552,264721,295693
1630067078789,39583,264733,295670
1630067078799,39607,264721,295708
1630067078809,39635,264749,295725
1630067078819,39665,264781,295705
1630067078829,39685,264866,295695
1630067078839,39727,264847,295747
1630067078849,39745,264898,295763
1630067078859,39775,264875,295786
1630067078869,39810,264905,295764
1630067078879,39822,264940,295788
1630067078889,39860,264945,295748
1630067078899,39878,264923,295758
1630067078909,39913,264977,295779
1630067078919,39933,264971,295783
1630067078929,39964,264991,295769
1630067078939,39988,265019,295800
1630067078949,40018,265076,295770
1630067078959,40042,265040,295839
1630067078969,40071,265080,295835
1630067078979,40102,265081,295857
1630067078989,40125,265098,295888
1630067078999,40157,265142,295832
1630067079009,40201,265135,295919
1630067079019,40217,265179,295898
1630067079029,40258,265216,295892
1630067079039,40287,265218,295919
1630067079049,40311,265265,295922
1630067079059,40336,265275,295915
1630067079069,40372,265312,295942
1630067079079,40399,265334,295940
1630067079089,40439,265389,295959
1630067079099,40472,265421,295958
1630067079109,40520,265439,295987
1630067079119,40557,265467,295983
1630067079129,40582,265484,296002
1630067079139,40610,265475,296000
1630067079149,40644,265505,295956
1630067079159,40640,265399,295947
1630067079169,40644,265271,295926
1630067079179,40608,265174,295835
1630067079189,40583,265083,295840
1630067079199,40537,264977,295814
1630067079209,40472,264911,295805
1630067079219,40415,264827,295763
1630067079229,40343,264777,295733
1630067079239,40281,264720,295766
1630067079249,40229,264699,295725
1630067079259,40182,264619,295739
1630067079269,40143,264619,295734
1630067079279,40098,264659,295721
1630067079289,40074,264630,295785
1630067079299,40048,264638,295758
1630067079309,40007,264619,295750
1630067079319,39974,264629,295746
1630067079329,39955,264590,295746
1630067079339,39943,264611,295728
1630067079349,39912,264617,295738
1630067079359,39885,264571,295680
1630067079369,39866,264547,295747
1630067079379,39840,264562,295716
1630067079389,39830,264562,295717
1630067079399,39824,264589,295755
1630067079409,39821,264581,295760
1630067079419,39820,264617,295747
1630067079429,39808,264588,295743
1630067079439,39802,264587,295738
1630067079449,39803,264641,295763
1630067079459,39799,264660,295723
1630067079469,39793,264614,295757
1630067079479,39796,264600,295731
1630067079489,39781,264612,295726
1630067079499,39761,264590,295748
1630067079509,39759,264589,295747
1630067079519,39742,264616,295741
1630067079529,39732,264597,295745
1630067079539,39723,264615,295732
1630067079549,39723,264642,295723
1630067079559,39720,264618,295759
1630067079569,39719,264616,295756
1630067079579,39719,264623,295722
1630067079589,39725,264621,295734
1630067079599,39735,264616,295770
1630067079609,39749,264614,295760
1630067079619,39747,264634,295763
1630067079629,39770,264635,295741
1630067079639,39768,264671,295722
1630067079649,39799,264673,295711
1630067079659,39808,264707,295758
1630067079669,39831,264712,295749
1630067079679,39849,264732,295747
1630067079689,39867,264758,295769
1630067079699,39888,264799,295751
1630067079709,39915,264747,295745
1630067079719,39939,264790,295758
1630067079729,39949,264833,295758
1630067079739,39970,264856,295764
1630067079749,40003,264851,295759
1630067079759,40033,264861,295793
1630067079769,40048,264887,295791
1630067079779,40075,264911,295734
1630067079789,40086,264919,295740
1630067079799,40115,264912,295749
1630067079809,40146,264960,295721
1630067079819,40158,264937,295764
1630067079829,40177,264923,295722
1630067079839,40206,264912,295740
1630067079849,40231,264933,295682
1630067079859,40255,264980,295705
1630067079869,40273,264997,295700
1630067079879,40292,264960,295680
1630067079889,40323,264960,295693
1630067079899,40350,265035,295697
1630067079909,40371,265016,295703
1630067079919,40397,265026,295706
1630067079929,40426,265061,295688
1630067079939,40456,265041,295707
1630067079949,40483,265093,295742
1630067079959,40510,265088,295707
1630067079969,40537,265132,295714
1630067079979,40566,265129,295730
1630067079989,40591,265126,295705
1630067079999,40618,265166,295706
1630067080009,40655,265172,295764
1630067080019,40683,265187,295762
1630067080029,40718,265225,295786
1630067080039,40753,265265,295803
1630067080049,40782,265312,295820
1630067080059,40810,265331,295829
1630067080069,40842,265357,295833
1630067080079,40873,265447,295839
1630067080089,40896,265472,295845
1630067080099,40939,265504,295871
1630067080109,40976,265508,295879
1630067080119,41014,265583,295908
1630067080129,41043,265517,295899
1630067080139,41034,265458,295862
1630067080149,41023,265408,295825
1630067080159,41005,265252,295785
1630067080169,40969,265138,295749
1630067080179,40915,264998,295672
1630067080189,40863,264891,295660
1630067080199,40777,264783,295592
1630067080209,40715,264708,295593
1630067080219,40648,264602,295565
1630067080229,40576,264549,295569
1630067080239,40517,264512,295533
1630067080249,40458,264470,295514
1630067080259,40418,264456,295542
1630067080269,40366,264439,295518
1630067080279,40324,264450,295501
1630067080289,40289,264455,295525
1630067080299,40253,264389,295520
1630067080309,40224,264369,295471
1630067080319,40187,264382,295502
1630067080329,40170,264354,295474
1630067080339,40140,264382,295452
1630067080349,40104,264355,295454
1630067080359,40086,264376,295444
1630067080369,40070,264371,295438
1630067080379,40058,264349,295430
1630067080389,40054,264392,295445
1630067080399,40056,264386,295446
1630067080409,40054,264401,295466
1630067080419,40029,264411,295440
1630067080429,40028,264367,295420
1630067080439,40024,264355,295435
1630067080449,40007,264361,295410
1630067080459,40002,264332,295408
1630067080469,39982,264317,295383
1630067080479,39966,264289,295356
1630067080489,39952,264274,295353
1630067080499,39935,264226,295325
1630067080509,39919,264259,295322
1630067080519,39914,264249,295331
1630067080529,39904,264219,295317
1630067080539,39901,264267,295342
1630067080549,39897,264243,295315
1630067080559,39893,264285,295325
1630067080569,39905,264309,295384
1630067080579,39907,264329,295371
1630067080589,39896,264348,295362
1630067080599,39914,264342,295389
1630067080609,39921,264402,295435
1630067080619,39923,264455,295411
1630067080629,39935,264456,295448
1630067080639,39958,264476,295457
1630067080649,39963,264491,295432
1630067080659,39986,264516,295467
1630067080669,40000,264569,295503
1630067080679,40015,264566,295481
1630067080689,40036,264582,295501
1630067080699,40058,264600,295530
1630067080709,40085,264675,295523
1630067080719,40108,264655,295514
1630067080729,40121,264689,295502
1630067080739,40152,264703,295535
1630067080749,40168,264721,295534
1630067080759,40190,264738,295533
1630067080769,40218,264753,295555
1630067080779,40241,264805,295516
1630067080789,40266,264829,295589
1630067080799,40294,264880,295597
1630067080809,40322,264872,295613
1630067080819,40353,264920,295648
1630067080829,40374,264913,295621
1630067080839,40396,264951,295641
1630067080849,40419,264990,295669
1630067080859,40447,264984,295641
1630067080869,40469,265029,295682
1630067080879,40507,265034,295679
1630067080889,40532,265071,295673
1630067080899,40553,265108,295696
1630067080909,40593,265122,295715
1630067080919,40619,265099,295688
1630067080929,40647,265130,295729
1630067080939,40674,265163,295709
1630067080949,40695,265193,295744
1630067080959,40724,265197,295728
1630067080969,40750,265240,295739
1630067080979,40770,265238,295771
1630067080989,40810,265244,295784
1630067080999,40838,265308,295764
1630067081009,40874,265296,295776
1630067081019,40896,265315,295781
1630067081029,40927,265364,295803
1630067081039,40963,265406,295837
1630067081049,40997,265471,295807
1630067081059,41036,265460,295847
1630067081069,41067,265498,295854
1630067081079,41100,265488,295877
1630067081089,41098,265435,295824
1630067081099,41077,265292,295764
1630067081109,41052,265256,295706
1630067081119,41001,265089,295683
1630067081129,40946,265000,295670
1630067081139,40871,264848,295639
1630067081149,40801,264760,295628
1630067081159,40724,264663,295617
1630067081169,40639,264614,295579
1630067081179,40564,264561,295572
1630067081189,40493,264524,295569
1630067081199,40435,264514,295583
1630067081209,40385,264476,295540
1630067081219,40339,264493,295578
1630067081229,40297,264509,295545
1630067081239,40266,264492,295574
1630067081249,40231,264490,295578
1630067081259,40204,264470,295581
1630067081269,40170,264489,295592
1630067081279,40143,264495,295553
1630067081289,40120,264506,295544
1630067081299,40094,264535,295578
1630067081309,40086,264474,295558
1630067081319,40069,264521,295540
1630067081329,40050,264540,295604
1630067081339,40051,264581,295592
1630067081349,40044,264591,295606
1630067081359,40042,264574,295573
1630067081369,40038,264624,295574
1630067081379,40036,264611,295550
1630067081389,40018,264573,295574
1630067081399,40022,264531,295578
1630067081409,40005,264532,295551
1630067081419,39990,264528,295518
1630067081429,39964,264556,295537
1630067081439,39959,264485,295532
1630067081449,39943,264499,295527
1630067081459,39922,264518,295494
1630067081469,39914,264480,295501
1630067081479,39909,264501,295505
1630067081489,39892,264518,295528
1630067081499,39888,264496,295507
1630067081509,39886,264522,295511
1630067081519,39894,264594,295566
1630067081529,39899,264614,295544
1630067081539,39901,264609,295564
1630067081549,39915,264645,295581
1630067081559,39923,264665,295567
1630067081569,39929,264655,295580
1630067081579,39950,264712,295628
1630067081589,39965,264731,295605
1630067081599,39990,264786,295657
1630067081609,40012,264833,295675
1630067081619,40033,264867,295696
1630067081629,40049,264895,295695
1630067081639,40072,264922,295733
1630067081649,40107,264975,295723
1630067081659,40125,264952,295736
1630067081669,40156,265003,295742
1630067081679,40174,265027,295749
1630067081689,40199,265079,295792
1630067081699,40220,265124,295781
1630067081709,40259,265111,295760
1630067081719,40284,265125,295769
1630067081729,40310,265120,295793
1630067081739,40327,265180,295802
1630067081749,40354,265167,295786
1630067081759,40384,265181,295787
1630067081769,40402,265241,295777
1630067081779,40432,265269,295807
1630067081789,40452,265261,295804
1630067081799,40487,265311,295811
1630067081809,40508,265297,295835
1630067081819,40540,265328,295856
1630067081829,40563,265393,295869
1630067081839,40595,265395,295868
1630067081849,40621,265402,295884
1630067081859,40651,265419,295885
1630067081869,40691,265451,295916
1630067081879,40710,265492,295911
1630067081889,40732,265518,295900
1630067081899,40770,265496,295936
1630067081909,40796,265566,295912
1630067081919,40824,265559,295943
1630067081929,40854,265549,295969
1630067081939,40882,265585,295944
1630067081949,40912,265626,295916
1630067081959,40944,265663,295978
1630067081969,40980,265706,295969
1630067081979,41000,265743,295958
1630067081989,41037,265766,295980
1630067081999,41082,265786,296012
1630067082009,41111,265846,296044
1630067082019,41146,265842,296015
1630067082029,41160,265826,296011
1630067082039,41175,265787,295953
1630067082049,41161,265692,295966
1630067082059,41124,265561,295915
1630067082069,41064,265444,295859
1630067082079,41015,265307,295799
1630067082089,40937,265156,295790
1630067082099,40846,265027,295744
1630067082109,40773,264923,295701
1630067082119,40696,264843,295711
1630067082129,40621,264800,295655
1630067082139,40554,264779,295653
1630067082149,40490,264766,295645
1630067082159,40439,264743,295667
1630067082169,40394,264725,295673
1630067082179,40365,264740,295646
1630067082189,40345,264760,295675
1630067082199,40310,264790,295693
1630067082209,40284,264767,295699
1630067082219,40266,264775,295692
1630067082229,40245,264745,295690
1630067082239,40229,264805,295684
1630067082249,40222,264788,295675
1630067082259,40203,264821,295700
1630067082269,40201,264829,295725
1630067082279,40205,264841,295704
1630067082289,40213,264858,295751
1630067082299,40207,264891,295718
1630067082309,40202,264867,295722
1630067082319,40200,264879,295690
1630067082329,40205,264865,295657
1630067082339,40198,264869,295666
1630067082349,40201,264844,295667
1630067082359,40194,264837,295654
1630067082369,40182,264806,295658
1630067082379,40169,264821,295681
1630067082389,40155,264825,295659
1630067082399,40139,264781,295664
1630067082409,40138,264805,295670
1630067082419,40133,264812,295701
1630067082429,40136,264845,295713
1630067082439,40127,264898,295711
1630067082449,40136,264920,295762
1630067082459,40141,264946,295755
1630067082469,40154,265021,295801
1630067082479,40150,265027,295826
1630067082489,40169,265072,295835
1630067082499,40186,265107,295890
1630067082509,40201,265183,295893
1630067082519,40229,265225,295932
1630067082529,40247,265253,295982
1630067082539,40265,265356,296003
1630067082549,40296,265429,296034
1630067082559,40315,265412,296069
1630067082569,40343,265485,296096
1630067082579,40363,265508,296117
1630067082589,40397,265607,296163
1630067082599,40430,265615,296161
1630067082609,40441,265689,296205
1630067082619,40479,265735,296261
1630067082629,40510,265770,296309
1630067082639,40537,265862,296343
1630067082649,40570,265903,296371
1630067082659,40608,266023,296419
1630067082669,40641,266042,296448
1630067082679,40676,266132,296528
1630067082689,40717,266202,296584
1630067082699,40749,266310,296641
1630067082709,40795,266382,296681
1630067082719,40820,266449,296748
1630067082729,40862,266566,296841
1630067082739,40891,266649,296922
1630067082749,40937,266731,296996
1630067082759,40972,266788,297073
1630067082769,41012,266930,297097
1630067082779,41044,267010,297192
1630067082789,41069,267075,297248
1630067082799,41102,267171,297241
1630067082809,41128,267230,297318
1630067082819,41158,267206,297314
1630067082829,41183,267270,297354
1630067082839,41208,267286,297363
1630067082849,41240,267383,297417
1630067082859,41284,267368,297413
1630067082869,41301,267354,297429
1630067082879,41331,267434,297459
1630067082889,41369,267504,297446
1630067082899,41403,267533,297491
1630067082909,41434,267565,297480
1630067082919,41471,267582,297474
1630067082929,41488,267630,297510
1630067082939,41518,267628,297472
1630067082949,41530,267543,297437
1630067082959,41522,267438,297360
1630067082969,41505,267319,297300
1630067082979,41447,267192,297186
1630067082989,41390,267074,297150
1630067082999,41329,266848,297091
1630067083009,41257,266632,296991
1630067083019,41183,266499,296897
1630067083029,41097,266345,296806
1630067083039,41030,266260,296740
1630067083049,40969,266180,296680
1630067083059,40916,266069,296641
1630067083069,40879,265992,296617
1630067083079,40827,265982,296606
1630067083089,40802,265944,296581
1630067083099,40772,265943,296580
1630067083109,40754,265938,296579
1630067083119,40738,265926,296547
1630067083129,40722,265916,296546
1630067083139,40707,265923,296547
1630067083149,40704,265914,296533
1630067083159,40700,265898,296533
1630067083169,40696,265963,296537
1630067083179,40702,265910,296526
1630067083189,40714,265942,296483
1630067083199,40713,265912,296517
1630067083209,40720,265937,296437
1630067083219,40723,265953,296467
1630067083229,40734,265923,296405
1630067083239,40742,265909,296431
1630067083249,40738,265910,296441
1630067083259,40722,265885,296395
1630067083269,40721,265838,296400
1630067083279,40715,265835,296394
1630067083289,40703,265814,296364
1630067083299,40690,265795,296367
1630067083309,40689,265788,296355
1630067083319,40685,265775,296356
1630067083329,40676,265760,296369
1630067083339,40680,265776,296343
1630067083349,40680,265766,296349
1630067083359,40675,265816,296381
1630067083369,40690,265786,296326
1630067083379,40695,265820,296346
1630067083389,40712,265818,296348
1630067083399,40725,265826,296360
1630067083409,40733,265843,296352
1630067083419,40744,265836,296348
1630067083429,40759,265860,296361
1630067083439,40771,265888,296368
1630067083449,40793,265891,296372
1630067083459,40825,265917,296357
1630067083469,40841,265953,296348
1630067083479,40853,265982,296370
1630067083489,40889,265981,296340
1630067083499,40912,266021,296381
1630067083509,40927,266016,296376
1630067083519,40957,266091,296377
1630067083529,40977,266087,296408
1630067083539,41011,266108,296392
1630067083549,41054,266123,296392
1630067083559,41066,266146,296393
1630067083569,41097,266142,296398
1630067083579,41118,266174,296408
1630067083589,41157,266183,296407
1630067083599,41181,266243,296428
1630067083609,41207,266214,296403
1630067083619,41226,266254,296433
1630067083629,41258,266292,296456
1630067083639,41286,266291,296438
1630067083649,41312,266324,296471
1630067083659,41339,266342,296476
1630067083669,41370,266383,296467
1630067083679,41405,266363,296481
1630067083689,41426,266396,296515
1630067083699,41459,266427,296509
1630067083709,41494,266412,296504
1630067083719,41518,266476,296542
1630067083729,41553,266547,296555
1630067083739,41575,266557,296573
1630067083749,41611,266617,296567
1630067083759,41634,266583,296585
1630067083769,41654,266565,296554
1630067083779,41662,266570,296506
1630067083789,41659,266459,296499
1630067083799,41624,266397,296435
1630067083809,41578,266260,296428
1630067083819,41519,266190,296403
1630067083829,41449,266016,296383
1630067083839,41376,265877,296335
1630067083849,41302,265813,296311
1630067083859,41220,265717,296279
1630067083869,41153,265667,296265
1630067083879,41101,265651,296242
1630067083889,41034,265584,296250
1630067083899,40992,265587,296227
1630067083909,40938,265606,296202
1630067083919,40910,265595,296226
1630067083929,40873,265598,296215
1630067083939,40857,265600,296220
1630067083949,40833,265553,296232
1630067083959,40818,265574,296235
1630067083969,40797,265620,296208
1630067083979,40790,265599,296248
1630067083989,40775,265598,296233
1630067083999,40765,265609,296221
1630067084009,40756,265634,296224
1630067084019,40770,265657,296244
1630067084029,40771,265736,296249
1630067084039,40776,265713,296241
1630067084049,40779,265727,296223
1630067084059,40771,265704,296249
1630067084069,40771,265711,296230
1630067084079,40762,265705,296244
1630067084089,40759,265688,296188
1630067084099,40746,265651,296191
1630067084109,40734,265626,296193
1630067084119,40721,265637,296185
1630067084129,40707,265600,296174
1630067084139,40700,265624,296161
1630067084149,40691,265618,296158
1630067084159,40686,265589,296156
1630067084169,40671,265600,296158
1630067084179,40671,265619,296143
1630067084189,40671,265616,296149
1630067084199,40670,265630,296143
1630067084209,40673,265648,296172
1630067084219,40679,265645,296164
1630067084229,40691,265688,296158
1630067084239,40687,265707,296135
1630067084249,40705,265742,296199
1630067084259,40716,265763,296203
1630067084269,40742,265757,296170
1630067084279,40758,265755,296214
1630067084289,40770,265816,296200
1630067084299,40805,265856,296201
1630067084309,40825,265875,296224
1630067084319,40845,265928,296207
1630067084329,40874,265955,296236
1630067084339,40900,265946,296246
1630067084349,40925,265983,296271
1630067084359,40955,265978,296266
1630067084369,40963,266025,296246
1630067084379,40997,266086,296301
1630067084389,41022,266069,296309
1630067084399,41038,266093,296268
1630067084409,41068,266141,296304
1630067084419,41093,266130,296292
1630067084429,41116,266182,296303
1630067084439,41141,266168,296345
1630067084449,41176,266186,296306
1630067084459,41203,266185,296311
1630067084469,41218,266241,296320
1630067084479,41247,266223,296280
1630067084489,41271,266274,296320
1630067084499,41284,266243,296318
1630067084509,41311,266292,296337
1630067084519,41335,266298,296332
1630067084529,41376,266349,296308
1630067084539,41398,266336,296327
1630067084549,41430,266364,296376
1630067084559,41454,266370,296357
1630067084569,41480,266367,296368
1630067084579,41515,266411,296352
1630067084589,41542,266402,296335
1630067084599,41554,266435,296357
1630067084609,41553,266329,296299
1630067084619,41534,266254,296254
1630067084629,41493,266104,296213
1630067084639,41442,266016,296158
1630067084649,41352,265873,296168
1630067084659,41268,265745,296094
1630067084669,41187,265646,296023
1630067084679,41109,265530,296015
1630067084689,41017,265468,296012
1630067084699,40936,265401,295957
1630067084709,40876,265346,295949
1630067084719,40808,265350,295989
1630067084729,40754,265310,295984
1630067084739,40695,265329,295924
1630067084749,40648,265307,295937
1630067084759,40621,265312,295948
1630067084769,40578,265310,295936
1630067084779,40541,265292,295944
1630067084789,40518,265288,295922
1630067084799,40487,265266,295907
1630067084809,40465,265275,295921
1630067084819,40444,265251,295927
1630067084829,40425,265242,295899
1630067084839,40416,265251,295922
1630067084849,40399,265283,295892
1630067084859,40394,265300,295904
1630067084869,40394,265323,295913
1630067084879,40384,265281,295916
1630067084889,40370,265271,295885
1630067084899,40352,265251,295857
1630067084909,40347,265274,295858
1630067084919,40333,265255,295865
1630067084929,40318,265205,295840
1630067084939,40301,265223,295818
1630067084949,40275,265233,295840
1630067084959,40256,265156,295779
1630067084969,40245,265163,295827
1630067084979,40226,265167,295840
1630067084989,40225,265184,295781
1630067084999,40203,265168,295799
1630067085009,40201,265185,295777
1630067085019,40189,265184,295791
1630067085029,40185,265193,295807
1630067085039,40193,265200,295804
1630067085049,40191,265192,295788
1630067085059,40199,265255,295835
1630067085069,40207,265249,295798
1630067085079,40210,265275,295832
1630067085089,40223,265278,295848
1630067085099,40238,265350,295822
1630067085109,40251,265321,295845
1630067085119,40281,265368,295848
1630067085129,40295,265395,295903
1630067085139,40315,265472,295869
1630067085149,40331,265454,295870
1630067085159,40356,265469,295898
1630067085169,40387,265482,295896
1630067085179,40420,265538,295926
1630067085189,40437,265574,295906
1630067085199,40459,265569,295933
1630067085209,40485,265572,295929
1630067085219,40514,265626,295939
1630067085229,40540,265642,295911
1630067085239,40563,265643,295943
1630067085249,40582,265666,295942
1630067085259,40608,265710,295939
1630067085269,40646,265685,295932
1630067085279,40650,265748,295937
1630067085289,40683,265754,295963
1630067085299,40695,265740,295950
1630067085309,40738,265727,295980
1630067085319,40744,265787,295960
1630067085329,40787,265809,295971
1630067085339,40810,265816,296006
1630067085349,40838,265826,295990
1630067085359,40857,265860,296014
1630067085369,40891,265886,296042
1630067085379,40923,265895,296036
1630067085389,40950,265912,296058
1630067085399,40982,265975,296064
1630067085409,41003,265951,296076
1630067085419,41018,265935,296039
1630067085429,41009,265865,295994
1630067085439,40993,265789,295930
1630067085449,40939,265637,295930
1630067085459,40887,265533,295902
1630067085469,40801,265413,295853
1630067085479,40706,265279,295770
1630067085489,40632,265201,295786
1630067085499,40535,265137,295778
1630067085509,40448,265040,295709
1630067085519,40374,265004,295725
1630067085529,40301,265001,295727
1630067085539,40235,264953,295729
1630067085549,40176,264942,295723
1630067085559,40146,264910,295711
1630067085569,40105,264947,295704
1630067085579,40071,264939,295739
1630067085589,40035,264921,295678
1630067085599,40011,264904,295701
1630067085609,39989,264892,295676
1630067085619,39949,264898,295687
1630067085629,39926,264873,295647
1630067085639,39909,264895,295667
1630067085649,39892,264880,295681
1630067085659,39896,264926,295637
1630067085669,39888,264943,295698
1630067085679,39896,264923,295686
1630067085689,39892,264933,295701
1630067085699,39882,264934,295625
1630067085709,39873,264946,295620
1630067085719,39860,264919,295643
1630067085729,39852,264921,295631
1630067085739,39837,264958,295647
1630067085749,39821,264905,295649
1630067085759,39825,264933,295582
1630067085769,39800,264879,295600
1630067085779,39779,264866,295606
1630067085789,39773,264873,295601
1630067085799,39754,264861,295592
1630067085809,39756,264861,295609
1630067085819,39745,264865,295653
1630067085829,39742,264918,295595
1630067085839,39736,264894,295636
1630067085849,39743,264919,295627
1630067085859,39746,264921,295631
1630067085869,39752,264967,295645
1630067085879,39769,264986,295631
1630067085889,39781,264988,295643
1630067085899,39795,265037,295662
1630067085909,39809,265060,295665
1630067085919,39838,265039,295710
1630067085929,39836,265072,295701
1630067085939,39876,265081,295685
1630067085949,39894,265122,295684
1630067085959,39922,265150,295720
1630067085969,39932,265170,295721
1630067085979,39958,265217,295740
1630067085989,39986,265238,295766
1630067085999,40002,265304,295748
1630067086009,40040,265287,295750
1630067086019,40050,265309,295770
1630067086029,40078,265361,295787
1630067086039,40106,265358,295794
1630067086049,40128,265372,295789
1630067086059,40149,265385,295799
1630067086069,40180,265405,295810
1630067086079,40215,265416,295780
1630067086089,40234,265441,295807
1630067086099,40260,265462,295834
1630067086109,40271,265466,295799
1630067086119,40305,265493,295799
1630067086129,40333,265492,295818
1630067086139,40350,265540,295803
1630067086149,40360,265517,295816
1630067086159,40396,265548,295836
1630067086169,40418,265583,295849
1630067086179,40463,265599,295823
1630067086189,40489,265641,295880
1630067086199,40517,265649,295863
1630067086209,40550,265649,295877
1630067086219,40571,265678,295900
1630067086229,40597,265705,295876
1630067086239,40626,265701,295832
1630067086249,40621,265588,295840
1630067086259,40604,265505,295773
1630067086269,40548,265399,295729
1630067086279,40494,265249,295725
1630067086289,40432,265172,295655
1630067086299,40363,265061,295640
1630067086309,40279,264914,295614
1630067086319,40195,264864,295574
1630067086329,40116,264815,295526
1630067086339,40053,264798,295529
1630067086349,39978,264722,295519
1630067086359,39931,264723,295555
1630067086369,39883,264736,295522
1630067086379,39850,264748,295538
1630067086389,39803,264728,295504
1630067086399,39778,264751,295553
1630067086409,39759,264723,295541
1630067086419,39728,264742,295492
1630067086429,39714,264762,295542
1630067086439,39689,264721,295530
1630067086449,39683,264710,295510
1630067086459,39660,264747,295525
1630067086469,39661,264797,295531
1630067086479,39653,264800,295554
1630067086489,39670,264851,295563
1630067086499,39665,264816,295543
1630067086509,39661,264828,295569
1630067086519,39653,264837,295523
1630067086529,39648,264843,295506
1630067086539,39637,264833,295547
1630067086549,39630,264831,295518
1630067086559,39636,264825,295505
1630067086569,39616,264773,295504
1630067086579,39600,264785,295501
1630067086589,39586,264767,295501
1630067086599,39570,264737,295478
1630067086609,39553,264772,295490
1630067086619,39553,264735,295510
1630067086629,39555,264782,295491
1630067086639,39540,264772,295492
1630067086649,39543,264763,295513
1630067086659,39542,264748,295503
1630067086669,39543,264823,295521
1630067086679,39546,264803,295484
1630067086689,39553,264799,295514
1630067086699,39573,264839,295527
1630067086709,39581,264855,295533
1630067086719,39594,264889,295541
1630067086729,39616,264899,295556
1630067086739,39634,264927,295553
1630067086749,39653,264964,295558
1630067086759,39679,264964,295594
1630067086769,39708,265033,295599
1630067086779,39738,265043,295593
1630067086789,39741,265061,295628
1630067086799,39775,265080,295632
1630067086809,39815,265104,295646
1630067086819,39837,265122,295656
1630067086829,39853,265174,295621
1630067086839,39882,265183,295649
1630067086849,39908,265233,295677
1630067086859,39934,265213,295653
1630067086869,39960,265266,295677
1630067086879,39995,265286,295699
1630067086889,40017,265285,295712
1630067086899,40047,265289,295683
1630067086909,40071,265294,295692
1630067086919,40095,265305,295682
1630067086929,40126,265352,295695
1630067086939,40140,265384,295708
1630067086949,40172,265386,295718
1630067086959,40202,265397,295754
1630067086969,40229,265470,295726
1630067086979,40245,265470,295758
1630067086989,40275,265453,295730
1630067086999,40299,265468,295766
1630067087009,40334,265540,295810
1630067087019,40364,265576,295812
1630067087029,40399,265605,295803
1630067087039,40431,265558,295806
1630067087049,40455,265598,295738
1630067087059,40452,265502,295794
1630067087069,40438,265454,295668
1630067087079,40402,265292,295630
1630067087089,40355,265212,295644
