timestamp,green,ir,red
1630067051821,32581,240773,306516
1630067051831,32585,240749,306499
1630067051841,32594,240743,306506
1630067051851,32596,240766,306496
1630067051861,32607,240740,306486
1630067051871,32616,240750,306481
1630067051881,32620,240755,306483
1630067051891,32632,240793,306473
1630067051901,32650,240798,306489
1630067051911,32662,240829,306472
1630067051921,32671,240809,306513
1630067051931,32680,240801,306510
1630067051941,32689,240840,306528
1630067051951,32700,240844,306562
1630067051961,32711,240874,306548
1630067051971,32718,240884,306565
1630067051981,32726,240859,306566
1630067051991,32742,240885,306528
1630067052001,32756,240888,306555
1630067052011,32763,240903,306528
1630067052021,32768,240951,306522
1630067052031,32782,240944,306522
1630067052041,32790,240966,306552
1630067052051,32798,240928,306455
1630067052061,32811,240929,306435
1630067052071,32808,240917,306425
1630067052081,32803,240885,306411
1630067052091,32790,240848,306413
1630067052101,32782,240861,306419
1630067052111,32754,240769,306387
1630067052121,32725,240803,306346
1630067052131,32706,240792,306352
1630067052141,32676,240743,306326
1630067052151,32651,240731,306371
1630067052161,32624,240715,306351
1630067052171,32598,240676,306342
1630067052181,32576,240626,306348
1630067052191,32553,240631,306340
1630067052201,32541,240630,306366
1630067052211,32518,240624,306363
1630067052221,32520,240601,306380
1630067052231,32502,240586,306370
1630067052241,32491,240595,306427
1630067052251,32486,240594,306416
1630067052261,32472,240623,306417
1630067052271,32461,240595,306401
1630067052281,32458,240613,306471
1630067052291,32438,240607,306445
1630067052301,32443,240570,306464
1630067052311,32435,240578,306411
1630067052321,32429,240598,306420
1630067052331,32429,240564,306414
1630067052341,32423,240592,306440
1630067052351,32418,240548,306408
1630067052361,32419,240541,306403
1630067052371,32406,240564,306381
1630067052381,32395,240542,306400
1630067052391,32394,240534,306373
1630067052401,32389,240548,306379
1630067052411,32383,240550,306358
1630067052421,32366,240498,306387
1630067052431,32354,240503,306356
1630067052441,32362,240459,306325
1630067052451,32344,240466,306331
1630067052461,32337,240459,306337
1630067052471,32332,240455,306313
1630067052481,32323,240488,306307
1630067052491,32328,240486,306321
1630067052501,32318,240479,306322
1630067052511,32321,240445,306301
1630067052521,32319,240451,306283
1630067052531,32326,240407,306266
1630067052541,32318,240448,306221
1630067052551,32325,240470,306215
1630067052561,32332,240406,306196
1630067052571,32327,240456,306190
1630067052581,32350,240487,306153
1630067052591,32349,240507,306163
1630067052601,32354,240523,306143
1630067052611,32373,240538,306133
1630067052621,32363,240522,306167
1630067052631,32375,240539,306161
1630067052641,32384,240587,306158
1630067052651,32399,240606,306186
1630067052661,32405,240635,306191
1630067052671,32415,240645,306200
1630067052681,32431,240680,306219
1630067052691,32441,240727,306242
1630067052701,32454,240765,306272
1630067052711,32473,240780,306317
1630067052721,32481,240796,306330
1630067052731,32498,240843,306337
1630067052741,32513,240899,306391
1630067052751,32526,240886,306373
1630067052761,32542,240912,306452
1630067052771,32555,240934,306463
1630067052781,32567,240947,306525
1630067052791,32587,240942,306525
1630067052801,32604,240986,306569
1630067052811,32617,241048,306547
1630067052821,32623,241007,306545
1630067052831,32632,240998,306513
1630067052841,32626,240982,306514
1630067052851,32629,240950,306545
1630067052861,32619,240921,306522
1630067052871,32612,240917,306496
1630067052881,32592,240886,306471
1630067052891,32575,240862,306422
1630067052901,32554,240797,306389
1630067052911,32524,240770,306427
1630067052921,32499,240756,306383
1630067052931,32492,240707,306387
1630067052941,32461,240686,306355
1630067052951,32449,240671,306368
1630067052961,32427,240712,306318
1630067052971,32407,240658,306328
1630067052981,32396,240629,306320
1630067052991,32377,240654,306318
1630067053001,32370,240621,306292
1630067053011,32360,240607,306289
1630067053021,32347,240579,306259
1630067053031,32335,240579,306219
1630067053041,32325,240583,306252
1630067053051,32315,240546,306243
1630067053061,32312,240545,306224
1630067053071,32319,240495,306218
1630067053081,32301,240570,306193
1630067053091,32291,240476,306153
1630067053101,32305,240464,306140
1630067053111,32296,240459,306134
1630067053121,32289,240510,306119
1630067053131,32275,240434,306115
1630067053141,32266,240427,306082
1630067053151,32263,240402,306078
1630067053161,32262,240373,306053
1630067053171,32247,240387,306037
1630067053181,32236,240366,306033
1630067053191,32232,240343,306004
1630067053201,32226,240316,305982
1630067053211,32217,240333,306045
1630067053221,32208,240324,305995
1630067053231,32208,240312,306033
1630067053241,32216,240307,306002
1630067053251,32215,240278,306029
1630067053261,32211,240298,305961
1630067053271,32222,240289,306046
1630067053281,32217,240287,306022
1630067053291,32226,240274,306017
1630067053301,32228,240315,306022
1630067053311,32235,240300,306033
1630067053321,32244,240328,306051
1630067053331,32261,240345,306061
1630067053341,32269,240354,306081
1630067053351,32278,240338,306095
1630067053361,32292,240340,306087
1630067053371,32298,240342,306122
1630067053381,32307,240387,306165
1630067053391,32323,240350,306117
1630067053401,32336,240407,306155
1630067053411,32340,240385,306152
1630067053421,32343,240417,306163
1630067053431,32356,240433,306206
1630067053441,32357,240432,306166
1630067053451,32368,240447,306170
1630067053461,32375,240486,306208
1630067053471,32375,240442,306167
1630067053481,32390,240446,306155
1630067053491,32398,240436,306113
1630067053501,32406,240409,306102
1630067053511,32414,240382,306023
1630067053521,32429,240422,306027
1630067053531,32435,240388,306027
1630067053541,32445,240392,306013
1630067053551,32449,240362,306046
1630067053561,32464,240350,306047
1630067053571,32448,240359,306016
1630067053581,32447,240344,306052
1630067053591,32434,240329,306083
1630067053601,32425,240274,306063
1630067053611,32404,240309,306099
1630067053621,32379,240300,306085
1630067053631,32350,240264,306144
1630067053641,32332,240295,306136
1630067053651,32310,240284,306203
1630067053661,32285,240301,306228
1630067053671,32262,240306,306280
1630067053681,32241,240303,306289
1630067053691,32224,240298,306303
1630067053701,32204,240298,306336
1630067053711,32184,240302,306333
1630067053721,32174,240326,306381
1630067053731,32159,240337,306431
1630067053741,32146,240351,306462
1630067053751,32127,240351,306481
1630067053761,32115,240428,306547
1630067053771,32110,240403,306618
1630067053781,32108,240447,306621
1630067053791,32102,240455,306645
1630067053801,32100,240490,306725
1630067053811,32102,240534,306725
1630067053821,32104,240539,306784
1630067053831,32101,240557,306808
1630067053841,32096,240595,306802
1630067053851,32102,240608,306827
1630067053861,32097,240599,306872
1630067053871,32093,240665,306880
1630067053881,32088,240640,306888
1630067053891,32101,240673,306922
1630067053901,32088,240676,306932
1630067053911,32105,240658,306956
1630067053921,32097,240700,306933
1630067053931,32093,240685,306977
1630067053941,32090,240702,307002
1630067053951,32091,240738,307034
1630067053961,32096,240757,307061
1630067053971,32104,240733,307026
1630067053981,32101,240775,307040
1630067053991,32108,240760,307029
1630067054001,32111,240750,307036
1630067054011,32114,240757,307008
1630067054021,32116,240810,307015
1630067054031,32130,240800,306999
1630067054041,32140,240823,307013
1630067054051,32140,240824,307051
1630067054061,32152,240811,307018
1630067054071,32163,240803,307063
1630067054081,32168,240838,306998
1630067054091,32180,240842,306992
1630067054101,32180,240877,307012
1630067054111,32191,240854,306976
1630067054121,32201,240889,307013
1630067054131,32207,240877,306992
1630067054141,32220,240893,307021
1630067054151,32232,240914,306982
1630067054161,32241,240895,307018
1630067054171,32240,240928,307004
1630067054181,32258,240932,307035
1630067054191,32275,240941,307037
1630067054201,32266,240939,307035
1630067054211,32298,240941,307017
1630067054221,32310,240968,307043
1630067054231,32322,240957,307073
1630067054241,32316,240959,307062
1630067054251,32337,240971,307079
1630067054261,32345,240982,307086
1630067054271,32359,240993,307102
1630067054281,32368,241011,307120
1630067054291,32385,241065,307112
1630067054301,32396,241083,307148
1630067054311,32414,241060,307158
1630067054321,32428,241104,307197
1630067054331,32435,241165,307227
1630067054341,32454,241153,307235
1630067054351,32472,241144,307225
1630067054361,32483,241140,307261
1630067054371,32488,241186,307245
1630067054381,32491,241151,307272
1630067054391,32491,241158,307267
1630067054401,32461,241108,307270
1630067054411,32447,241124,307254
1630067054421,32422,241041,307258
1630067054431,32395,241037,307274
1630067054441,32364,240993,307232
1630067054451,32342,241001,307238
1630067054461,32318,240955,307235
1630067054471,32301,240955,307215
1630067054481,32278,240944,307213
1630067054491,32255,240905,307178
1630067054501,32241,240902,307220
1630067054511,32218,240857,307204
1630067054521,32215,240883,307205
1630067054531,32193,240845,307198
1630067054541,32183,240848,307169
1630067054551,32173,240832,307171
1630067054561,32163,240799,307169
1630067054571,32159,240794,307175
1630067054581,32139,240774,307199
1630067054591,32139,240791,307181
1630067054601,32132,240761,307192
1630067054611,32129,240783,307165
1630067054621,32124,240745,307187
1630067054631,32133,240755,307149
1630067054641,32124,240768,307189
1630067054651,32126,240739,307179
1630067054661,32125,240779,307165
1630067054671,32122,240754,307188
1630067054681,32124,240748,307183
1630067054691,32117,240722,307168
1630067054701,32126,240718,307182
1630067054711,32125,240750,307202
1630067054721,32116,240743,307172
1630067054731,32120,240717,307166
1630067054741,32117,240765,307177
1630067054751,32119,240734,307199
1630067054761,32121,240743,307183
1630067054771,32119,240721,307227
1630067054781,32124,240738,307196
1630067054791,32129,240726,307192
1630067054801,32131,240747,307238
1630067054811,32142,240760,307200
1630067054821,32150,240799,307194
1630067054831,32163,240778,307248
1630067054841,32167,240794,307243
1630067054851,32172,240777,307241
1630067054861,32185,240778,307259
1630067054871,32180,240794,307285
1630067054881,32194,240792,307274
1630067054891,32224,240814,307284
1630067054901,32225,240816,307244
1630067054911,32238,240843,307280
1630067054921,32244,240845,307268
1630067054931,32257,240886,307282
1630067054941,32266,240863,307265
1630067054951,32278,240889,307283
1630067054961,32292,240895,307285
1630067054971,32303,240886,307294
1630067054981,32315,240903,307326
1630067054991,32326,240917,307323
1630067055001,32339,240915,307335
1630067055011,32350,240954,307318
1630067055021,32374,240947,307264
1630067055031,32374,240983,307336
1630067055041,32381,240946,307329
1630067055051,32401,240972,307351
1630067055061,32416,240984,307343
1630067055071,32416,241018,307332
1630067055081,32440,240998,307340
1630067055091,32452,241022,307358
1630067055101,32458,241030,307333
1630067055111,32476,241080,307354
1630067055121,32488,241050,307368
1630067055131,32494,241055,307391
1630067055141,32500,241086,307397
1630067055151,32498,241015,307377
1630067055161,32486,241016,307329
1630067055171,32485,240996,307361
1630067055181,32461,240949,307310
1630067055191,32425,240933,307317
1630067055201,32420,240914,307361
1630067055211,32394,240894,307310
1630067055221,32370,240862,307313
1630067055231,32345,240919,307263
1630067055241,32324,240801,307284
1630067055251,32304,240833,307305
1630067055261,32284,240793,307270
1630067055271,32276,240796,307304
1630067055281,32264,240782,307311
1630067055291,32248,240759,307302
1630067055301,32245,240724,307262
1630067055311,32238,240719,307292
1630067055321,32224,240714,307281
1630067055331,32218,240722,307236
1630067055341,32218,240705,307270
1630067055351,32208,240632,307269
1630067055361,32197,240676,307261
1630067055371,32202,240688,307291
1630067055381,32202,240684,307261
1630067055391,32217,240701,307269
1630067055401,32216,240699,307288
1630067055411,32214,240703,307273
1630067055421,32218,240721,307240
1630067055431,32221,240685,307251
1630067055441,32223,240710,307271
1630067055451,32230,240699,307253
1630067055461,32224,240682,307265
1630067055471,32229,240660,307269
1630067055481,32226,240691,307262
1630067055491,32231,240668,307279
1630067055501,32229,240701,307287
1630067055511,32230,240688,307270
1630067055521,32230,240690,307308
1630067055531,32245,240681,307273
1630067055541,32250,240724,307323
1630067055551,32248,240648,307313
1630067055561,32252,240730,307317
1630067055571,32259,240702,307339
1630067055581,32267,240733,307335
1630067055591,32282,240759,307319
1630067055601,32286,240778,307321
1630067055611,32293,240749,307348
1630067055621,32300,240787,307353
1630067055631,32318,240771,307350
1630067055641,32333,240804,307353
1630067055651,32339,240804,307371
1630067055661,32355,240799,307399
1630067055671,32373,240827,307352
1630067055681,32371,240833,307398
1630067055691,32388,240848,307422
1630067055701,32405,240861,307411
1630067055711,32426,240880,307411
1630067055721,32436,240875,307407
1630067055731,32448,240920,307432
1630067055741,32455,240935,307460
1630067055751,32479,240934,307456
1630067055761,32484,240943,307449
1630067055771,32504,240958,307454
1630067055781,32514,240987,307501
1630067055791,32531,240991,307505
1630067055801,32537,241022,307526
1630067055811,32557,241059,307516
1630067055821,32577,241047,307518
1630067055831,32581,241055,307514
1630067055841,32592,241068,307524
1630067055851,32612,241079,307533
1630067055861,32622,241085,307522
1630067055871,32640,241134,307543
1630067055881,32650,241153,307557
1630067055891,32664,241146,307590
1630067055901,32677,241163,307605
1630067055911,32694,241161,307610
1630067055921,32711,241170,307588
1630067055931,32720,241227,307598
1630067055941,32735,241194,307626
1630067055951,32740,241185,307621
1630067055961,32763,241223,307602
1630067055971,32759,241203,307601
1630067055981,32757,241153,307613
1630067055991,32754,241166,307606
1630067056001,32732,241159,307573
1630067056011,32711,241136,307556
1630067056021,32700,241119,307538
1630067056031,32674,241071,307530
1630067056041,32653,241010,307513
1630067056051,32630,241025,307494
1630067056061,32615,240999,307503
1630067056071,32598,240988,307498
1630067056081,32587,240970,307535
1630067056091,32572,240936,307501
1630067056101,32564,240921,307478
1630067056111,32553,240934,307490
1630067056121,32538,240947,307495
1630067056131,32543,240926,307495
1630067056141,32534,240898,307502
1630067056151,32527,240893,307489
1630067056161,32526,240892,307488
1630067056171,32518,240888,307534
1630067056181,32515,240937,307514
1630067056191,32527,240921,307525
1630067056201,32521,240905,307508
1630067056211,32530,240898,307515
1630067056221,32532,240924,307486
1630067056231,32532,240909,307504
1630067056241,32535,240950,307504
1630067056251,32541,240972,307512
1630067056261,32539,240925,307474
1630067056271,32544,240938,307499
1630067056281,32554,240949,307548
1630067056291,32547,240938,307528
1630067056301,32550,240965,307518
1630067056311,32548,240958,307491
1630067056321,32557,240938,307540
1630067056331,32562,240982,307516
1630067056341,32565,240935,307515
1630067056351,32569,240962,307547
1630067056361,32569,240974,307538
1630067056371,32574,240979,307551
1630067056381,32576,240935,307585
1630067056391,32586,240969,307571
1630067056401,32596,240969,307565
1630067056411,32603,241025,307569
1630067056421,32615,241013,307572
1630067056431,32619,241001,307548
1630067056441,32630,241063,307601
1630067056451,32638,241062,307602
1630067056461,32654,241036,307600
1630067056471,32657,241109,307601
1630067056481,32674,241113,307664
1630067056491,32671,241090,307646
1630067056501,32699,241121,307662
1630067056511,32706,241170,307686
1630067056521,32707,241149,307648
1630067056531,32735,241183,307675
1630067056541,32746,241195,307666
1630067056551,32760,241233,307745
1630067056561,32770,241222,307710
1630067056571,32786,241225,307702
1630067056581,32803,241258,307716
1630067056591,32819,241239,307739
1630067056601,32830,241311,307754
1630067056611,32842,241309,307774
1630067056621,32861,241305,307758
1630067056631,32871,241329,307781
1630067056641,32897,241329,307796
1630067056651,32899,241375,307775
1630067056661,32921,241375,307822
1630067056671,32933,241382,307780
1630067056681,32949,241405,307824
1630067056691,32956,241397,307817
1630067056701,32971,241425,307813
1630067056711,32984,241407,307868
1630067056721,32995,241431,307822
1630067056731,33009,241481,307855
1630067056741,33024,241451,307861
1630067056751,33041,241488,307882
1630067056761,33056,241478,307885
1630067056771,33071,241522,307879
1630067056781,33085,241553,307925
1630067056791,33095,241592,307889
1630067056801,33110,241566,307934
1630067056811,33131,241552,307918
1630067056821,33144,241584,307953
1630067056831,33163,241602,307950
1630067056841,33156,241657,307948
1630067056851,33176,241631,307927
1630067056861,33187,241619,307951
1630067056871,33189,241646,307917
1630067056881,33187,241592,307907
1630067056891,33178,241577,307903
1630067056901,33173,241556,307922
1630067056911,33149,241506,307889
1630067056921,33129,241491,307872
1630067056931,33111,241436,307895
1630067056941,33095,241445,307836
1630067056951,33081,241422,307847
1630067056961,33057,241430,307852
1630067056971,33048,241403,307848
1630067056981,33045,241357,307839
1630067056991,33027,241382,307824
1630067057001,33008,241328,307793
1630067057011,33007,241368,307847
1630067057021,33003,241342,307831
1630067057031,32994,241377,307825
1630067057041,32984,241387,307836
1630067057051,32982,241314,307804
1630067057061,32977,241355,307827
1630067057071,32978,241353,307857
1630067057081,32981,241322,307872
1630067057091,32981,241385,307862
1630067057101,32988,241348,307826
1630067057111,32985,241389,307841
1630067057121,32995,241342,307853
1630067057131,33002,241361,307833
1630067057141,33005,241367,307834
1630067057151,32994,241388,307852
1630067057161,33000,241366,307830
1630067057171,33008,241395,307870
1630067057181,33007,241351,307817
1630067057191,33014,241378,307852
1630067057201,33003,241358,307863
1630067057211,33005,241364,307822
1630067057221,33008,241341,307829
1630067057231,33010,241353,307835
1630067057241,33011,241328,307829
1630067057251,33022,241385,307858
1630067057261,33015,241349,307855
1630067057271,33018,241345,307840
1630067057281,33026,241339,307844
1630067057291,33035,241305,307810
1630067057301,33043,241327,307864
1630067057311,33049,241340,307834
1630067057321,33052,241376,307812
1630067057331,33065,241341,307836
1630067057341,33069,241381,307834
1630067057351,33077,241392,307812
1630067057361,33084,241395,307809
1630067057371,33091,241365,307824
1630067057381,33103,241393,307808
1630067057391,33111,241401,307797
1630067057401,33128,241416,307832
1630067057411,33139,241423,307827
1630067057421,33145,241467,307827
1630067057431,33163,241457,307864
1630067057441,33166,241473,307852
1630067057451,33163,241485,307860
1630067057461,33190,241452,307907
1630067057471,33204,241502,307854
1630067057481,33205,241496,307857
1630067057491,33218,241509,307888
1630067057501,33227,241534,307899
1630067057511,33246,241541,307943
1630067057521,33250,241554,307899
1630067057531,33264,241548,307906
1630067057541,33273,241543,307937
1630067057551,33285,241595,307933
1630067057561,33291,241593,307930
1630067057571,33311,241619,307977
1630067057581,33324,241639,307941
1630067057591,33336,241611,307937
1630067057601,33348,241646,307931
1630067057611,33357,241670,307979
1630067057621,33372,241700,307974
1630067057631,33370,241710,307963
1630067057641,33378,241708,307960
1630067057651,33410,241669,307945
1630067057661,33411,241742,307976
1630067057671,33425,241742,308000
1630067057681,33437,241736,308004
1630067057691,33447,241748,307989
1630067057701,33465,241804,308009
1630067057711,33472,241828,308020
1630067057721,33481,241816,308026
1630067057731,33501,241843,308028
1630067057741,33518,241857,308036
1630067057751,33529,241870,308064
1630067057761,33547,241863,308057
1630067057771,33561,241901,308056
1630067057781,33568,241920,308040
1630067057791,33574,241899,308034
1630067057801,33587,241853,308013
1630067057811,33580,241846,308065
1630067057821,33585,241855,308001
1630067057831,33565,241815,308021
1630067057841,33545,241799,308003
1630067057851,33525,241766,307969
1630067057861,33514,241745,308017
1630067057871,33486,241725,307963
1630067057881,33467,241676,307974
1630067057891,33448,241706,307954
1630067057901,33434,241642,307945
1630067057911,33411,241680,307974
1630067057921,33396,241628,307957
1630067057931,33389,241628,307943
1630067057941,33369,241622,307946
1630067057951,33350,241578,307947
1630067057961,33355,241595,307917
1630067057971,33337,241563,307943
1630067057981,33339,241571,307910
1630067057991,33333,241554,307898
1630067058001,33323,241581,307933
1630067058011,33324,241512,307917
1630067058021,33322,241525,307938
1630067058031,33324,241533,307908
1630067058041,33317,241538,307941
1630067058051,33319,241551,307921
1630067058061,33328,241535,307914
1630067058071,33327,241542,307915
1630067058081,33329,241536,307922
1630067058091,33329,241537,307936
1630067058101,33319,241554,307925
1630067058111,33321,241542,307902
1630067058121,33319,241514,307929
1630067058131,33323,241531,307923
1630067058141,33322,241564,307942
1630067058151,33324,241555,307888
1630067058161,33321,241523,307936
1630067058171,33316,241556,307901
1630067058181,33316,241520,307925
1630067058191,33313,241517,307912
1630067058201,33323,241539,307912
1630067058211,33328,241505,307909
1630067058221,33323,241513,307954
1630067058231,33327,241515,307940
1630067058241,33335,241535,307950
1630067058251,33339,241528,307967
1630067058261,33344,241568,307950
1630067058271,33351,241528,307917
1630067058281,33363,241578,307960
1630067058291,33357,241582,307983
1630067058301,33377,241641,307985
1630067058311,33381,241638,308018
1630067058321,33393,241663,308022
1630067058331,33406,241630,308007
1630067058341,33419,241648,308001
1630067058351,33424,241664,308044
1630067058361,33435,241678,308044
1630067058371,33453,241725,308046
1630067058381,33463,241727,308049
1630067058391,33474,241739,308099
1630067058401,33478,241754,308079
1630067058411,33491,241732,308100
1630067058421,33512,241790,308127
1630067058431,33514,241807,308089
1630067058441,33522,241793,308121
1630067058451,33540,241829,308139
1630067058461,33555,241797,308164
1630067058471,33561,241853,308120
1630067058481,33574,241894,308145
1630067058491,33593,241851,308185
1630067058501,33596,241887,308173
1630067058511,33614,241902,308164
1630067058521,33624,241884,308188
1630067058531,33635,241884,308216
1630067058541,33648,241948,308204
1630067058551,33658,241931,308198
1630067058561,33675,241959,308215
1630067058571,33683,241986,308211
1630067058581,33700,241996,308240
1630067058591,33713,241986,308261
1630067058601,33722,242006,308258
1630067058611,33736,242002,308285
1630067058621,33735,242020,308279
1630067058631,33759,242015,308285
1630067058641,33771,242085,308261
1630067058651,33787,242111,308280
1630067058661,33796,242095,308293
1630067058671,33819,242134,308346
1630067058681,33830,242142,308333
1630067058691,33843,242159,308302
1630067058701,33848,242187,308353
1630067058711,33861,242190,308316
1630067058721,33873,242175,308315
1630067058731,33877,242184,308304
1630067058741,33877,242174,308357
1630067058751,33874,242143,308283
1630067058761,33876,242128,308288
1630067058771,33857,242094,308319
1630067058781,33832,242069,308302
1630067058791,33837,242039,308305
1630067058801,33812,241997,308278
1630067058811,33789,242029,308311
1630067058821,33771,241998,308307
1630067058831,33749,241956,308249
1630067058841,33731,241940,308279
1630067058851,33715,241944,308284
1630067058861,33709,241930,308267
1630067058871,33700,241930,308259
1630067058881,33683,241923,308259
1630067058891,33677,241928,308200
1630067058901,33674,241910,308242
1630067058911,33670,241885,308289
1630067058921,33658,241890,308243
1630067058931,33663,241938,308257
1630067058941,33666,241920,308334
1630067058951,33674,241915,308295
1630067058961,33655,241930,308307
1630067058971,33661,241925,308293
1630067058981,33666,241943,308307
1630067058991,33663,241945,308297
1630067059001,33665,241949,308306
1630067059011,33672,241953,308284
1630067059021,33671,241939,308297
1630067059031,33676,241930,308297
1630067059041,33667,241938,308276
1630067059051,33673,241961,308311
1630067059061,33666,241930,308273
1630067059071,33666,241928,308310
1630067059081,33669,241926,308316
1630067059091,33661,241938,308257
1630067059101,33676,241921,308304
1630067059111,33665,241867,308336
1630067059121,33660,241924,308276
1630067059131,33662,241946,308307
1630067059141,33662,241941,308318
1630067059151,33668,241905,308333
1630067059161,33671,241917,308326
1630067059171,33676,241948,308342
1630067059181,33680,241942,308310
1630067059191,33686,241951,308334
1630067059201,33690,241981,308343
1630067059211,33703,241943,308309
1630067059221,33701,242007,308320
1630067059231,33703,242002,308348
1630067059241,33722,242010,308323
1630067059251,33734,242020,308338
1630067059261,33729,242032,308354
1630067059271,33748,242032,308345
1630067059281,33753,242046,308341
1630067059291,33764,242081,308344
1630067059301,33770,242090,308341
1630067059311,33789,242096,308368
1630067059321,33796,242098,308363
1630067059331,33800,242124,308354
1630067059341,33809,242091,308338
1630067059351,33827,242112,308360
1630067059361,33839,242126,308339
1630067059371,33856,242133,308381
1630067059381,33858,242137,308395
1630067059391,33866,242179,308384
1630067059401,33878,242177,308362
1630067059411,33891,242170,308412
1630067059421,33889,242179,308408
1630067059431,33917,242191,308415
1630067059441,33925,242180,308437
1630067059451,33929,242221,308418
1630067059461,33937,242207,308457
1630067059471,33953,242233,308449
1630067059481,33964,242290,308440
1630067059491,33976,242293,308464
1630067059501,33980,242336,308427
1630067059511,33997,242315,308432
1630067059521,34009,242351,308492
1630067059531,34018,242359,308468
1630067059541,34037,242361,308471
1630067059551,34042,242388,308485
1630067059561,34064,242363,308494
1630067059571,34067,242334,308488
1630067059581,34066,242342,308471
1630067059591,34064,242350,308429
1630067059601,34050,242306,308395
1630067059611,34031,242262,308438
1630067059621,34033,242237,308467
1630067059631,34008,242231,308389
1630067059641,33978,242190,308396
1630067059651,33957,242140,308386
1630067059661,33933,242120,308354
1630067059671,33910,242134,308375
1630067059681,33891,242073,308329
1630067059691,33875,242034,308299
1630067059701,33851,242049,308316
1630067059711,33838,241991,308319
1630067059721,33831,241992,308306
1630067059731,33817,242010,308294
1630067059741,33811,241967,308307
1630067059751,33797,241979,308287
1630067059761,33783,241968,308249
1630067059771,33774,241968,308285
1630067059781,33767,241980,308304
1630067059791,33762,241952,308269
1630067059801,33755,241958,308282
1630067059811,33757,241945,308261
1630067059821,33752,241994,308278
1630067059831,33753,241949,308284
1630067059841,33765,241976,308278
1630067059851,33758,241984,308289
1630067059861,33754,241938,308244
1630067059871,33754,241955,308263
1630067059881,33756,241945,308272
1630067059891,33740,241923,308239
1630067059901,33734,241931,308244
1630067059911,33729,241917,308222
1630067059921,33723,241947,308241
1630067059931,33728,241923,308250
1630067059941,33725,241912,308228
1630067059951,33721,241897,308207
1630067059961,33710,241935,308243
1630067059971,33712,241912,308224
1630067059981,33715,241906,308236
1630067059991,33710,241906,308248
1630067060001,33711,241920,308200
1630067060011,33716,241913,308207
1630067060021,33709,241920,308228
1630067060031,33709,241902,308215
1630067060041,33724,241946,308214
1630067060051,33723,241899,308245
1630067060061,33729,241968,308225
1630067060071,33733,241970,308214
1630067060081,33747,241931,308226
1630067060091,33749,241941,308231
1630067060101,33756,241982,308224
1630067060111,33760,241975,308221
1630067060121,33766,241980,308239
1630067060131,33775,242017,308220
1630067060141,33785,241996,308241
1630067060151,33796,242007,308217
1630067060161,33803,241994,308254
1630067060171,33808,242033,308278
1630067060181,33825,242038,308288
1630067060191,33829,242057,308242
1630067060201,33840,242076,308252
1630067060211,33841,242085,308249
1630067060221,33863,242074,308305
1630067060231,33874,242068,308278
1630067060241,33884,242108,308265
1630067060251,33890,242102,308283
1630067060261,33900,242104,308266
1630067060271,33916,242134,308268
1630067060281,33920,242154,308288
1630067060291,33932,242159,308288
1630067060301,33940,242165,308312
1630067060311,33956,242188,308302
1630067060321,33960,242186,308334
1630067060331,33973,242195,308310
1630067060341,33983,242225,308304
1630067060351,33991,242255,308335
1630067060361,34006,242261,308321
1630067060371,34013,242248,308334
1630067060381,34018,242284,308345
1630067060391,34037,242276,308346
1630067060401,34051,242281,308324
1630067060411,34058,242277,308346
1630067060421,34058,242275,308291
1630067060431,34060,242260,308279
1630067060441,34047,242200,308254
1630067060451,34031,242179,308268
1630067060461,34018,242122,308263
1630067060471,33990,242138,308246
1630067060481,33959,242090,308185
1630067060491,33929,242031,308212
1630067060501,33904,241987,308154
1630067060511,33876,241941,308147
1630067060521,33847,241911,308126
1630067060531,33829,241889,308172
1630067060541,33797,241873,308116
1630067060551,33781,241854,308088
1630067060561,33760,241859,308078
1630067060571,33732,241842,308094
1630067060581,33721,241814,308070
1630067060591,33706,241803,308093
1630067060601,33684,241793,308057
1630067060611,33671,241750,308042
1630067060621,33659,241742,308029
1630067060631,33651,241758,308064
1630067060641,33641,241722,308068
1630067060651,33635,241739,308075
1630067060661,33626,241729,308007
1630067060671,33626,241726,308078
1630067060681,33623,241714,308025
1630067060691,33617,241703,308036
1630067060701,33613,241709,308047
1630067060711,33604,241709,308038
1630067060721,33603,241707,308027
1630067060731,33587,241681,307998
1630067060741,33595,241662,308044
1630067060751,33584,241696,308001
1630067060761,33584,241674,308026
1630067060771,33570,241648,308000
1630067060781,33561,241621,308011
1630067060791,33554,241604,307952
1630067060801,33543,241635,307979
1630067060811,33539,241608,307964
1630067060821,33535,241621,307975
1630067060831,33536,241630,307958
1630067060841,33530,241605,307965
1630067060851,33521,241635,307965
1630067060861,33530,241601,308001
1630067060871,33524,241624,308013
1630067060881,33531,241631,307958
1630067060891,33520,241636,307994
1630067060901,33531,241656,307977
1630067060911,33546,241638,307961
1630067060921,33543,241620,308015
1630067060931,33544,241690,307999
1630067060941,33547,241678,307985
1630067060951,33555,241688,307980
1630067060961,33561,241705,308015
1630067060971,33574,241721,308013
1630067060981,33577,241717,308016
1630067060991,33588,241698,308005
1630067061001,33601,241690,308021
1630067061011,33604,241750,308015
1630067061021,33621,241745,308044
1630067061031,33617,241727,308035
1630067061041,33619,241749,308037
1630067061051,33640,241728,308052
1630067061061,33636,241774,308009
1630067061071,33661,241780,308036
1630067061081,33670,241752,308076
1630067061091,33674,241807,308048
1630067061101,33682,241808,308049
1630067061111,33687,241823,308051
1630067061121,33704,241858,308095
1630067061131,33707,241854,308071
1630067061141,33722,241841,308049
1630067061151,33729,241825,308082
1630067061161,33736,241883,308105
1630067061171,33745,241884,308080
1630067061181,33761,241897,308096
1630067061191,33768,241910,308107
1630067061201,33781,241925,308072
1630067061211,33788,241934,308102
1630067061221,33799,241923,308093
1630067061231,33804,241941,308115
1630067061241,33825,241981,308110
1630067061251,33829,241986,308109
1630067061261,33842,241994,308129
1630067061271,33855,241996,308108
1630067061281,33853,241965,308071
1630067061291,33856,241963,308084
1630067061301,33852,241959,308070
1630067061311,33845,241933,308059
1630067061321,33822,241883,308070
1630067061331,33804,241853,308016
1630067061341,33777,241814,308076
1630067061351,33736,241728,307993
1630067061361,33715,241745,307999
1630067061371,33687,241702,307913
1630067061381,33649,241670,308003
1630067061391,33621,241608,307937
1630067061401,33589,241580,307936
1630067061411,33560,241560,307925
1630067061421,33540,241569,307894
1630067061431,33518,241548,307863
1630067061441,33496,241537,307905
1630067061451,33481,241490,307884
1630067061461,33461,241501,307852
1630067061471,33444,241462,307900
1630067061481,33431,241392,307872
1630067061491,33427,241433,307841
1630067061501,33405,241444,307880
1630067061511,33392,241432,307858
1630067061521,33397,241424,307884
1630067061531,33392,241406,307829
1630067061541,33403,241411,307808
1630067061551,33391,241419,307842
1630067061561,33388,241398,307819
1630067061571,33383,241430,307812
1630067061581,33372,241365,307805
1630067061591,33369,241371,307809
1630067061601,33357,241349,307808
1630067061611,33356,241381,307845
1630067061621,33343,241352,307792
1630067061631,33337,241370,307813
1630067061641,33328,241354,307813
1630067061651,33320,241398,307812
1630067061661,33309,241318,307813
1630067061671,33303,241294,307778
1630067061681,33301,241315,307785
1630067061691,33292,241311,307812
1630067061701,33296,241339,307786
1630067061711,33296,241306,307822
1630067061721,33292,241312,307819
1630067061731,33290,241312,307828
1630067061741,33294,241360,307819
1630067061751,33296,241325,307811
1630067061761,33299,241339,307821
1630067061771,33300,241333,307800
1630067061781,33309,241348,307833
1630067061791,33309,241373,307866
1630067061801,33322,241385,307811
1630067061811,33334,241406,307823
1630067061821,33338,241368,307873
1630067061831,33355,241391,307853
1630067061841,33359,241414,307859
1630067061851,33353,241418,307854
1630067061861,33362,241491,307837
1630067061871,33382,241484,307898
1630067061881,33387,241468,307869
1630067061891,33399,241476,307911
1630067061901,33407,241512,307901
1630067061911,33417,241504,307913
1630067061921,33426,241487,307894
1630067061931,33437,241558,307923
1630067061941,33444,241546,307915
1630067061951,33456,241537,307929
1630067061961,33472,241509,307922
1630067061971,33480,241582,307918
1630067061981,33489,241577,307962
1630067061991,33490,241559,307966
1630067062001,33509,241605,307957
1630067062011,33518,241588,307946
1630067062021,33537,241622,307963
1630067062031,33541,241617,307995
1630067062041,33538,241650,307986
1630067062051,33556,241631,307999
1630067062061,33563,241634,308020
1630067062071,33574,241704,308054
1630067062081,33582,241689,308027
1630067062091,33595,241700,308009
1630067062101,33605,241719,308061
1630067062111,33622,241756,308040
1630067062121,33634,241778,308072
1630067062131,33646,241820,308097
1630067062141,33658,241790,308144
1630067062151,33666,241806,308081
1630067062161,33672,241849,308097
1630067062171,33685,241814,308116
1630067062181,33691,241815,308086
1630067062191,33695,241826,308086
1630067062201,33676,241807,308078
1630067062211,33669,241739,308088
1630067062221,33639,241669,308021
1630067062231,33615,241655,308010
1630067062241,33593,241617,307988
1630067062251,33560,241614,307988
1630067062261,33528,241572,307959
1630067062271,33500,241530,307963
1630067062281,33465,241519,307985
1630067062291,33452,241485,307926
1630067062301,33427,241475,307912
1630067062311,33408,241437,307926
1630067062321,33399,241431,307910
1630067062331,33365,241436,307925
1630067062341,33350,241415,307879
1630067062351,33345,241429,307891
1630067062361,33331,241384,307909
1630067062371,33322,241365,307904
1630067062381,33321,241405,307908
1630067062391,33305,241376,307900
1630067062401,33302,241357,307911
1630067062411,33299,241388,307923
1630067062421,33294,241369,307906
1630067062431,33289,241398,307918
1630067062441,33294,241416,307894
1630067062451,33289,241382,307883
1630067062461,33292,241406,307924
1630067062471,33283,241365,307885
1630067062481,33282,241362,307887
1630067062491,33281,241327,307899
1630067062501,33269,241314,307896
1630067062511,33250,241360,307872
1630067062521,33249,241327,307880
1630067062531,33240,241350,307868
1630067062541,33234,241316,307840
1630067062551,33231,241293,307892
1630067062561,33222,241317,307831
1630067062571,33216,241289,307846
1630067062581,33222,241322,307890
1630067062591,33225,241297,307864
1630067062601,33225,241302,307869
1630067062611,33225,241333,307895
1630067062621,33224,241322,307852
1630067062631,33228,241341,307875
1630067062641,33237,241344,307877
1630067062651,33232,241383,307868
1630067062661,33234,241346,307908
1630067062671,33244,241367,307863
1630067062681,33248,241383,307861
1630067062691,33255,241404,307897
1630067062701,33258,241368,307917
1630067062711,33269,241383,307929
1630067062721,33278,241407,307897
1630067062731,33285,241446,307931
1630067062741,33294,241442,307925
1630067062751,33300,241434,307906
1630067062761,33308,241457,307928
1630067062771,33322,241459,307913
1630067062781,33342,241480,307936
1630067062791,33350,241492,307957
1630067062801,33361,241515,307966
1630067062811,33369,241484,307981
1630067062821,33385,241526,307959
1630067062831,33392,241513,307948
1630067062841,33403,241583,307974
1630067062851,33409,241579,307985
1630067062861,33418,241581,307996
1630067062871,33436,241607,308005
1630067062881,33442,241599,308004
1630067062891,33454,241628,308000
1630067062901,33465,241613,307974
1630067062911,33472,241616,308024
1630067062921,33483,241693,308031
1630067062931,33505,241641,308035
1630067062941,33511,241670,308013
1630067062951,33511,241689,308074
1630067062961,33529,241723,308073
1630067062971,33552,241737,308069
1630067062981,33556,241731,308037
1630067062991,33572,241750,308081
1630067063001,33584,241781,308103
1630067063011,33584,241773,308093
1630067063021,33601,241796,308099
1630067063031,33617,241808,308103
1630067063041,33627,241819,308170
1630067063051,33643,241871,308125
1630067063061,33651,241856,308136
1630067063071,33666,241879,308112
1630067063081,33671,241839,308151
1630067063091,33675,241847,308115
1630067063101,33674,241826,308088
1630067063111,33656,241789,308082
1630067063121,33631,241733,308089
1630067063131,33619,241691,308041
1630067063141,33588,241703,308066
1630067063151,33549,241622,308024
1630067063161,33534,241614,308043
1630067063171,33480,241536,308045
1630067063181,33463,241551,308019
1630067063191,33433,241516,307978
1630067063201,33409,241484,307956
1630067063211,33384,241452,308024
1630067063221,33357,241458,308042
1630067063231,33344,241447,307994
1630067063241,33326,241411,307997
1630067063251,33314,241420,307977
1630067063261,33300,241449,307939
1630067063271,33284,241405,307993
1630067063281,33276,241398,307977
1630067063291,33261,241428,307971
1630067063301,33251,241400,308001
1630067063311,33250,241387,308053
1630067063321,33246,241388,307966
1630067063331,33253,241404,308015
1630067063341,33239,241405,307984
1630067063351,33237,241407,307993
1630067063361,33242,241418,308012
1630067063371,33233,241390,308031
1630067063381,33237,241389,308062
1630067063391,33233,241411,308055
1630067063401,33227,241448,308096
1630067063411,33225,241391,308141
1630067063421,33217,241452,308143
1630067063431,33219,241456,308185
1630067063441,33213,241453,308166
1630067063451,33210,241450,308200
1630067063461,33213,241450,308216
1630067063471,33206,241468,308208
1630067063481,33208,241464,308244
1630067063491,33205,241482,308268
1630067063501,33203,241510,308225
1630067063511,33212,241505,308271
1630067063521,33209,241519,308257
1630067063531,33213,241518,308275
1630067063541,33219,241547,308270
1630067063551,33229,241509,308277
1630067063561,33240,241573,308257
1630067063571,33243,241549,308268
1630067063581,33252,241573,308276
1630067063591,33260,241592,308280
1630067063601,33261,241574,308279
1630067063611,33276,241623,308267
1630067063621,33290,241622,308290
1630067063631,33296,241596,308263
1630067063641,33305,241587,308274
1630067063651,33316,241666,308296
1630067063661,33318,241641,308277
1630067063671,33333,241632,308270
1630067063681,33345,241628,308299
1630067063691,33360,241655,308313
1630067063701,33365,241682,308379
1630067063711,33386,241663,308368
1630067063721,33396,241705,308353
1630067063731,33405,241732,308394
1630067063741,33427,241783,308404
1630067063751,33435,241753,308427
1630067063761,33450,241770,308500
1630067063771,33478,241811,308498
1630067063781,33483,241876,308588
1630067063791,33507,241909,308626
1630067063801,33505,241930,308670
1630067063811,33531,241945,308699
1630067063821,33556,241989,308744
1630067063831,33561,241981,308786
1630067063841,33586,242085,308801
1630067063851,33603,242104,308851
1630067063861,33624,242106,308867
1630067063871,33638,242138,308900
1630067063881,33658,242178,308942
1630067063891,33669,242196,308941
1630067063901,33694,242231,309007
1630067063911,33709,242224,309016
1630067063921,33735,242311,309004
1630067063931,33747,242346,309030
1630067063941,33769,242333,309043
1630067063951,33787,242439,309055
1630067063961,33816,242448,309082
1630067063971,33817,242452,309115
1630067063981,33828,242470,309114
1630067063991,33817,242468,309092
1630067064001,33829,242456,309110
1630067064011,33809,242439,309119
1630067064021,33788,242410,309090
1630067064031,33773,242418,309087
1630067064041,33747,242334,309083
1630067064051,33725,242358,309091
1630067064061,33703,242334,309076
1630067064071,33685,242365,309093
1630067064081,33651,242276,309051
1630067064091,33642,242274,309028
1630067064101,33627,242283,309006
1630067064111,33608,242229,308960
1630067064121,33590,242215,308966
1630067064131,33564,242182,308920
1630067064141,33565,242188,308906
1630067064151,33550,242155,308814
1630067064161,33539,242142,308810
1630067064171,33517,242123,308737
1630067064181,33509,242055,308708
1630067064191,33500,242055,308637
1630067064201,33487,242034,308524
1630067064211,33479,241915,308407
1630067064221,33472,241920,308339
1630067064231,33473,241892,308233
1630067064241,33465,241826,308176
1630067064251,33457,241816,308094
1630067064261,33461,241829,308094
1630067064271,33455,241827,308067
1630067064281,33453,241860,308053
1630067064291,33436,241789,308062
1630067064301,33449,241816,308063
1630067064311,33433,241820,308055
1630067064321,33431,241812,308054
1630067064331,33422,241784,308053
1630067064341,33425,241799,308047
1630067064351,33421,241787,308043
1630067064361,33409,241778,307987
1630067064371,33419,241766,308046
1630067064381,33414,241771,308053
1630067064391,33420,241769,308066
1630067064401,33418,241789,308078
1630067064411,33419,241800,308037
1630067064421,33421,241825,308097
1630067064431,33433,241794,308080
1630067064441,33432,241798,308091
1630067064451,33447,241845,308125
1630067064461,33452,241851,308130
1630067064471,33464,241834,308111
1630067064481,33470,241880,308167
1630067064491,33481,241877,308125
1630067064501,33495,241850,308167
1630067064511,33502,241907,308205
1630067064521,33520,241903,308195
1630067064531,33532,241957,308207
1630067064541,33542,241942,308230
1630067064551,33554,241968,308283
1630067064561,33573,241972,308277
1630067064571,33585,242019,308244
1630067064581,33606,242030,308314
1630067064591,33617,242050,308318
1630067064601,33620,242024,308342
1630067064611,33662,242073,308364
1630067064621,33669,242083,308377
1630067064631,33684,242088,308387
1630067064641,33694,242116,308406
1630067064651,33710,242093,308419
1630067064661,33722,242119,308400
1630067064671,33735,242132,308412
1630067064681,33747,242134,308414
1630067064691,33760,242133,308423
1630067064701,33774,242191,308402
1630067064711,33793,242187,308393
1630067064721,33797,242213,308412
1630067064731,33817,242204,308470
1630067064741,33825,242198,308458
1630067064751,33846,242207,308440
1630067064761,33863,242171,308450
1630067064771,33870,242215,308483
1630067064781,33889,242262,308466
1630067064791,33903,242235,308426
1630067064801,33899,242234,308419
1630067064811,33911,242226,308434
1630067064821,33908,242205,308389
1630067064831,33900,242139,308351
1630067064841,33887,242128,308365
1630067064851,33869,242059,308327
1630067064861,33840,242057,308289
1630067064871,33819,241977,308276
1630067064881,33790,241940,308226
1630067064891,33764,241926,308246
1630067064901,33739,241899,308236
1630067064911,33723,241850,308234
1630067064921,33689,241879,308217
1630067064931,33689,241874,308214
1630067064941,33664,241868,308261
1630067064951,33666,241861,308243
1630067064961,33654,241821,308236
1630067064971,33654,241827,308289
1630067064981,33654,241819,308290
1630067064991,33645,241822,308290
1630067065001,33653,241814,308301
1630067065011,33659,241843,308296
1630067065021,33662,241865,308298
1630067065031,33672,241849,308310
1630067065041,33680,241814,308312
1630067065051,33687,241847,308319
1630067065061,33698,241831,308343
1630067065071,33701,241856,308322
1630067065081,33707,241839,308348
1630067065091,33692,241837,308355
1630067065101,33690,241833,308385
1630067065111,33690,241830,308397
1630067065121,33686,241838,308404
1630067065131,33684,241811,308390
1630067065141,33683,241833,308371
1630067065151,33678,241818,308390
1630067065161,33677,241823,308440
1630067065171,33667,241804,308468
1630067065181,33657,241832,308461
1630067065191,33658,241823,308476
1630067065201,33656,241799,308462
1630067065211,33659,241813,308482
1630067065221,33657,241844,308480
1630067065231,33658,241831,308491
1630067065241,33657,241844,308471
1630067065251,33659,241882,308507
1630067065261,33656,241837,308527
1630067065271,33666,241854,308483
1630067065281,33665,241861,308520
1630067065291,33675,241867,308511
1630067065301,33680,241874,308520
1630067065311,33688,241882,308552
1630067065321,33686,241908,308545
1630067065331,33688,241889,308502
1630067065341,33696,241918,308558
1630067065351,33703,241890,308518
1630067065361,33704,241931,308537
1630067065371,33721,241936,308534
1630067065381,33728,241938,308507
1630067065391,33733,241935,308484
1630067065401,33736,241956,308577
1630067065411,33744,241965,308526
1630067065421,33755,241981,308511
1630067065431,33753,241948,308550
1630067065441,33744,242002,308549
1630067065451,33759,241996,308561
1630067065461,33767,242008,308516
1630067065471,33773,241993,308553
1630067065481,33780,242034,308541
1630067065491,33787,242052,308549
1630067065501,33798,242022,308576
1630067065511,33804,242043,308550
1630067065521,33810,242050,308593
1630067065531,33815,242080,308532
1630067065541,33823,242031,308515
1630067065551,33831,242032,308487
1630067065561,33840,241996,308490
1630067065571,33816,241909,308476
1630067065581,33800,241883,308432
1630067065591,33772,241865,308411
1630067065601,33745,241819,308423
1630067065611,33706,241797,308411
1630067065621,33674,241773,308373
1630067065631,33643,241748,308405
1630067065641,33608,241731,308421
1630067065651,33575,241701,308414
1630067065661,33547,241655,308446
1630067065671,33514,241726,308443
1630067065681,33491,241689,308486
1630067065691,33469,241639,308476
1630067065701,33443,241652,308494
1630067065711,33424,241671,308503
1630067065721,33411,241688,308536
1630067065731,33372,241692,308553
1630067065741,33362,241690,308563
1630067065751,33345,241686,308562
1630067065761,33335,241687,308580
1630067065771,33325,241664,308580
1630067065781,33304,241671,308601
1630067065791,33299,241670,308598
1630067065801,33290,241681,308618
1630067065811,33281,241716,308598
1630067065821,33285,241672,308590
1630067065831,33269,241740,308600
1630067065841,33269,241682,308650
1630067065851,33253,241664,308617
1630067065861,33245,241697,308626
1630067065871,33229,241683,308627
1630067065881,33220,241675,308654
1630067065891,33204,241661,308606
1630067065901,33203,241659,308668
1630067065911,33183,241691,308626
1630067065921,33180,241673,308629
1630067065931,33156,241638,308644
1630067065941,33159,241621,308642
1630067065951,33152,241607,308635
1630067065961,33152,241643,308630
1630067065971,33147,241637,308661
1630067065981,33143,241625,308678
1630067065991,33140,241627,308645
1630067066001,33148,241679,308656
1630067066011,33144,241657,308662
1630067066021,33148,241656,308661
1630067066031,33145,241650,308673
1630067066041,33149,241677,308674
1630067066051,33165,241683,308684
1630067066061,33169,241702,308676
1630067066071,33173,241662,308677
1630067066081,33162,241687,308662
1630067066091,33180,241661,308687
1630067066101,33179,241705,308720
1630067066111,33185,241676,308690
1630067066121,33197,241673,308698
1630067066131,33202,241704,308701
1630067066141,33203,241734,308700
1630067066151,33217,241703,308685
1630067066161,33223,241704,308648
1630067066171,33222,241706,308673
1630067066181,33230,241707,308682
1630067066191,33243,241736,308698
1630067066201,33250,241731,308702
1630067066211,33251,241732,308684
1630067066221,33262,241760,308647
1630067066231,33277,241739,308724
1630067066241,33292,241766,308718
1630067066251,33283,241779,308700
1630067066261,33302,241770,308674
1630067066271,33312,241792,308737
1630067066281,33316,241812,308685
1630067066291,33330,241811,308701
1630067066301,33328,241772,308670
1630067066311,33329,241766,308649
1630067066321,33308,241762,308619
1630067066331,33289,241660,308678
1630067066341,33264,241667,308582
1630067066351,33233,241620,308629
1630067066361,33196,241558,308559
1630067066371,33159,241482,308551
1630067066381,33110,241474,308435
1630067066391,33078,241372,308490
1630067066401,33038,241368,308444
1630067066411,33004,241353,308455
1630067066421,32967,241294,308434
1630067066431,32932,241267,308418
1630067066441,32899,241199,308390
1630067066451,32863,241220,308383
1630067066461,32838,241146,308344
1630067066471,32809,241135,308343
1630067066481,32789,241054,308314
1630067066491,32764,241106,308317
1630067066501,32741,241054,308263
1630067066511,32725,241034,308277
1630067066521,32694,240963,308251
1630067066531,32679,240945,308252
1630067066541,32668,240928,308230
1630067066551,32661,240971,308225
1630067066561,32660,240969,308211
1630067066571,32641,240912,308204
1630067066581,32626,240908,308212
1630067066591,32620,240876,308196
1630067066601,32615,240884,308184
1630067066611,32601,240886,308195
1630067066621,32596,240839,308186
1630067066631,32587,240831,308200
1630067066641,32577,240858,308184
1630067066651,32574,240813,308154
1630067066661,32561,240780,308148
1630067066671,32550,240801,308125
1630067066681,32543,240769,308150
1630067066691,32536,240722,308146
1630067066701,32533,240768,308118
1630067066711,32525,240759,308154
1630067066721,32532,240760,308145
1630067066731,32529,240754,308130
1630067066741,32537,240748,308127
1630067066751,32530,240726,308140
1630067066761,32526,240717,308137
1630067066771,32535,240742,308182
1630067066781,32539,240727,308138
1630067066791,32543,240728,308151
1630067066801,32550,240750,308177
1630067066811,32566,240764,308166
1630067066821,32580,240795,308211
1630067066831,32576,240777,308205
1630067066841,32586,240802,308179
1630067066851,32598,240802,308176
1630067066861,32603,240807,308232
1630067066871,32626,240797,308215
1630067066881,32632,240839,308230
1630067066891,32630,240850,308258
1630067066901,32657,240832,308213
1630067066911,32664,240876,308284
1630067066921,32662,240895,308300
1630067066931,32671,240913,308237
1630067066941,32688,240899,308272
1630067066951,32702,240914,308294
1630067066961,32709,240913,308329
1630067066971,32721,240946,308357
1630067066981,32738,240987,308361
1630067066991,32754,240980,308365
1630067067001,32762,240968,308386
1630067067011,32771,241009,308396
1630067067021,32790,240997,308406
1630067067031,32796,241014,308416
1630067067041,32801,241056,308481
1630067067051,32803,241026,308460
1630067067061,32807,240995,308449
1630067067071,32794,241001,308412
1630067067081,32775,240951,308401
1630067067091,32749,240925,308387
1630067067101,32717,240849,308394
1630067067111,32685,240832,308378
1630067067121,32647,240813,308330
1630067067131,32615,240762,308338
1630067067141,32585,240693,308325
1630067067151,32551,240713,308358
1630067067161,32529,240642,308328
1630067067171,32500,240615,308299
1630067067181,32468,240615,308308
1630067067191,32450,240575,308301
1630067067201,32427,240575,308300
1630067067211,32408,240531,308304
1630067067221,32389,240513,308316
1630067067231,32362,240534,308305
1630067067241,32347,240467,308340
1630067067251,32334,240455,308255
1630067067261,32309,240435,308302
1630067067271,32304,240471,308281
1630067067281,32301,240434,308299
1630067067291,32296,240401,308292
1630067067301,32300,240452,308285
1630067067311,32295,240404,308287
1630067067321,32299,240448,308297
1630067067331,32300,240453,308311
1630067067341,32296,240437,308318
1630067067351,32293,240421,308331
1630067067361,32297,240431,308338
1630067067371,32281,240409,308368
1630067067381,32287,240400,308356
1630067067391,32285,240420,308358
1630067067401,32294,240380,308374
1630067067411,32289,240362,308360
1630067067421,32285,240392,308330
1630067067431,32292,240394,308384
1630067067441,32289,240404,308379
1630067067451,32293,240366,308376
1630067067461,32295,240414,308413
1630067067471,32300,240379,308409
1630067067481,32308,240375,308411
1630067067491,32311,240392,308427
1630067067501,32322,240399,308448
1630067067511,32329,240405,308420
1630067067521,32342,240426,308459
1630067067531,32357,240422,308456
1630067067541,32362,240462,308432
1630067067551,32365,240403,308473
1630067067561,32384,240495,308494
1630067067571,32405,240485,308499
1630067067581,32421,240519,308562
1630067067591,32437,240497,308548
1630067067601,32445,240536,308560
1630067067611,32461,240531,308570
1630067067621,32476,240569,308621
1630067067631,32494,240591,308637
1630067067641,32513,240619,308616
1630067067651,32525,240577,308644
1630067067661,32540,240651,308654
1630067067671,32565,240682,308618
1630067067681,32575,240648,308680
1630067067691,32588,240721,308720
1630067067701,32596,240720,308732
1630067067711,32624,240717,308779
1630067067721,32645,240728,308766
1630067067731,32657,240778,308813
1630067067741,32669,240789,308777
1630067067751,32689,240780,308832
1630067067761,32707,240804,308823
1630067067771,32726,240825,308833
1630067067781,32740,240858,308828
1630067067791,32765,240888,308831
1630067067801,32783,240895,308862
1630067067811,32795,240932,308951
1630067067821,32815,240952,308921
1630067067831,32831,241012,308939
1630067067841,32855,241013,308987
1630067067851,32866,241056,308949
1630067067861,32884,241058,309000
1630067067871,32917,241102,309026
1630067067881,32920,241124,309019
1630067067891,32948,241143,309031
1630067067901,32967,241146,309074
1630067067911,32987,241174,309092
1630067067921,33000,241196,309127
1630067067931,33017,241210,309132
1630067067941,33043,241251,309137
1630067067951,33067,241269,309146
1630067067961,33093,241296,309171
1630067067971,33094,241315,309186
1630067067981,33122,241328,309201
1630067067991,33146,241361,309261
1630067068001,33168,241384,309256
1630067068011,33182,241400,309271
1630067068021,33204,241456,309303
1630067068031,33226,241462,309304
1630067068041,33251,241500,309287
1630067068051,33260,241483,309305
1630067068061,33262,241461,309280
1630067068071,33269,241413,309261
1630067068081,33255,241448,309283
1630067068091,33247,241372,309268
1630067068101,33220,241359,309246
1630067068111,33197,241299,309233
1630067068121,33171,241277,309235
1630067068131,33147,241240,309204
1630067068141,33129,241245,309200
1630067068151,33111,241210,309227
1630067068161,33088,241229,309193
1630067068171,33076,241144,309175
1630067068181,33047,241127,309200
1630067068191,33047,241135,309138
1630067068201,33033,241091,309197
1630067068211,33019,241132,309225
1630067068221,33013,241101,309189
1630067068231,33007,241085,309143
1630067068241,32995,241090,309181
1630067068251,32992,241103,309146
1630067068261,32983,241050,309118
1630067068271,32978,241051,309179
1630067068281,32975,241062,309199
1630067068291,32984,241036,309171
1630067068301,32989,241047,309195
1630067068311,32998,241081,309186
1630067068321,32995,241067,309213
1630067068331,33003,241072,309165
1630067068341,33014,241106,309187
1630067068351,33006,241047,309212
1630067068361,33015,241051,309169
1630067068371,33018,241066,309210
1630067068381,33017,241053,309233
1630067068391,33024,241052,309246
1630067068401,33025,241063,309190
1630067068411,33029,241067,309201
1630067068421,33034,241077,309235
1630067068431,33033,241082,309251
1630067068441,33041,241092,309229
1630067068451,33047,241076,309224
1630067068461,33051,241079,309231
1630067068471,33062,241105,309260
1630067068481,33071,241089,309238
1630067068491,33088,241118,309221
1630067068501,33100,241165,309278
1630067068511,33100,241140,309318
1630067068521,33110,241185,309305
1630067068531,33127,241186,309274
1630067068541,33141,241203,309324
1630067068551,33150,241222,309356
1630067068561,33168,241239,309346
1630067068571,33182,241276,309358
1630067068581,33201,241244,309351
1630067068591,33222,241304,309401
1630067068601,33232,241316,309411
1630067068611,33256,241304,309408
1630067068621,33271,241315,309417
1630067068631,33289,241356,309418
1630067068641,33304,241360,309471
1630067068651,33330,241369,309465
1630067068661,33337,241411,309507
1630067068671,33359,241418,309458
1630067068681,33368,241429,309472
1630067068691,33381,241443,309508
1630067068701,33406,241494,309508
1630067068711,33421,241503,309530
1630067068721,33438,241507,309523
1630067068731,33455,241501,309527
1630067068741,33470,241538,309552
1630067068751,33491,241510,309547
1630067068761,33508,241572,309569
1630067068771,33528,241621,309615
1630067068781,33537,241629,309590
1630067068791,33559,241666,309622
1630067068801,33583,241653,309593
1630067068811,33590,241722,309666
1630067068821,33618,241700,309646
1630067068831,33634,241688,309668
1630067068841,33646,241729,309655
1630067068851,33676,241768,309707
1630067068861,33679,241738,309716
1630067068871,33698,241808,309698
1630067068881,33716,241814,309757
1630067068891,33738,241824,309778
1630067068901,33756,241858,309751
1630067068911,33779,241887,309767
1630067068921,33793,241920,309757
1630067068931,33815,241887,309756
1630067068941,33825,241920,309801
1630067068951,33845,241993,309808
1630067068961,33868,241990,309821
1630067068971,33878,241999,309853
1630067068981,33912,242017,309865
1630067068991,33920,242006,309896
1630067069001,33939,242070,309855
1630067069011,33966,242069,309873
1630067069021,33968,242089,309883
1630067069031,33985,242141,309908
1630067069041,34010,242156,309906
1630067069051,34027,242179,309892
1630067069061,34046,242176,309952
1630067069071,34057,242227,309945
1630067069081,34078,242219,309945
1630067069091,34100,242262,309960
1630067069101,34121,242303,310002
1630067069111,34142,242294,310020
1630067069121,34155,242344,310019
1630067069131,34167,242336,310041
1630067069141,34178,242374,310036
1630067069151,34205,242385,310039
1630067069161,34236,242398,310066
1630067069171,34248,242439,310064
1630067069181,34280,242440,310081
1630067069191,34284,242459,310115
1630067069201,34303,242459,310082
1630067069211,34311,242486,310073
1630067069221,34319,242454,310075
1630067069231,34321,242464,310062
1630067069241,34319,242440,310041
1630067069251,34320,242420,310053
1630067069261,34311,242411,310033
1630067069271,34291,242345,310053
1630067069281,34285,242307,310049
1630067069291,34260,242349,310011
1630067069301,34266,242305,310036
1630067069311,34253,242253,310013
1630067069321,34233,242290,310054
1630067069331,34228,242240,309994
1630067069341,34216,242298,310011
1630067069351,34209,242234,310007
1630067069361,34205,242225,309995
1630067069371,34203,242261,309955
1630067069381,34203,242240,309967
1630067069391,34198,242256,310000
1630067069401,34199,242253,309950
1630067069411,34197,242241,309927
1630067069421,34194,242225,309977
1630067069431,34197,242198,309988
1630067069441,34199,242234,309993
1630067069451,34206,242203,309995
1630067069461,34207,242241,309986
1630067069471,34217,242255,309971
1630067069481,34202,242294,309996
1630067069491,34218,242239,310008
1630067069501,34223,242300,310004
1630067069511,34224,242236,309984
1630067069521,34228,242266,309982
1630067069531,34233,242264,309995
1630067069541,34231,242252,309997
1630067069551,34236,242285,309990
1630067069561,34238,242293,310002
1630067069571,34252,242303,310012
1630067069581,34249,242266,310002
1630067069591,34247,242297,310043
1630067069601,34249,242280,310029
1630067069611,34259,242299,310024
1630067069621,34259,242301,309999
1630067069631,34283,242314,310047
1630067069641,34289,242268,310042
1630067069651,34287,242291,310043
1630067069661,34300,242333,309993
1630067069671,34301,242318,310035
1630067069681,34318,242338,310103
1630067069691,34320,242383,310064
1630067069701,34336,242355,310053
1630067069711,34350,242407,310070
1630067069721,34359,242391,310080
1630067069731,34373,242424,310089
1630067069741,34388,242425,310101
1630067069751,34399,242437,310126
1630067069761,34414,242486,310108
1630067069771,34425,242483,310136
1630067069781,34430,242487,310096
1630067069791,34439,242486,310136
1630067069801,34468,242528,310151
1630067069811,34478,242522,310120
1630067069821,34498,242566,310152
1630067069831,34509,242570,310134
1630067069841,34519,242597,310183
1630067069851,34537,242604,310169
1630067069861,34545,242654,310180
1630067069871,34565,242630,310207
1630067069881,34571,242619,310200
1630067069891,34584,242644,310194
1630067069901,34603,242689,310223
1630067069911,34617,242701,310245
1630067069921,34635,242694,310233
1630067069931,34651,242745,310256
1630067069941,34655,242757,310274
1630067069951,34667,242793,310254
1630067069961,34690,242752,310268
1630067069971,34700,242796,310274
1630067069981,34708,242775,310311
1630067069991,34740,242814,310290
1630067070001,34745,242846,310357
1630067070011,34762,242872,310330
1630067070021,34779,242892,310346
1630067070031,34794,242859,310356
1630067070041,34812,242882,310352
1630067070051,34818,242893,310377
1630067070061,34839,242913,310383
1630067070071,34853,242966,310399
1630067070081,34868,242969,310419
1630067070091,34879,242959,310387
1630067070101,34901,243028,310416
1630067070111,34913,243003,310402
1630067070121,34931,243018,310440
1630067070131,34937,243061,310475
1630067070141,34967,243088,310456
1630067070151,34973,243089,310465
1630067070161,34986,243082,310475
1630067070171,35003,243123,310460
1630067070181,35025,243116,310498
1630067070191,35037,243111,310518
1630067070201,35048,243145,310525
1630067070211,35063,243178,310517
1630067070221,35074,243175,310551
1630067070231,35099,243201,310537
1630067070241,35118,243234,310527
1630067070251,35132,243291,310552
1630067070261,35140,243283,310559
1630067070271,35164,243307,310581
1630067070281,35179,243347,310563
1630067070291,35196,243330,310577
1630067070301,35196,243331,310561
1630067070311,35206,243327,310559
1630067070321,35209,243267,310588
1630067070331,35202,243266,310555
1630067070341,35201,243281,310555
1630067070351,35194,243249,310562
1630067070361,35197,243227,310528
1630067070371,35170,243230,310515
1630067070381,35159,243191,310534
1630067070391,35146,243118,310475
1630067070401,35131,243155,310492
1630067070411,35121,243145,310475
1630067070421,35115,243106,310458
1630067070431,35110,243169,310503
1630067070441,35098,243122,310496
1630067070451,35094,243112,310455
1630067070461,35093,243136,310522
1630067070471,35080,243120,310464
1630067070481,35080,243149,310466
1630067070491,35081,243114,310452
1630067070501,35072,243110,310478
1630067070511,35071,243164,310450
1630067070521,35074,243132,310458
1630067070531,35077,243141,310462
1630067070541,35079,243148,310473
1630067070551,35086,243092,310457
1630067070561,35089,243161,310458
1630067070571,35088,243163,310466
1630067070581,35096,243145,310451
1630067070591,35098,243164,310472
1630067070601,35101,243127,310476
1630067070611,35100,243166,310479
1630067070621,35101,243146,310480
1630067070631,35104,243160,310477
1630067070641,35101,243126,310459
1630067070651,35101,243153,310453
1630067070661,35094,243130,310436
1630067070671,35097,243153,310452
1630067070681,35102,243156,310446
1630067070691,35104,243125,310437
1630067070701,35095,243145,310459
1630067070711,35102,243197,310444
1630067070721,35110,243154,310435
1630067070731,35107,243145,310405
1630067070741,35118,243160,310446
1630067070751,35134,243199,310438
1630067070761,35117,243187,310471
1630067070771,35133,243160,310447
1630067070781,35138,243207,310470
1630067070791,35146,243190,310438
1630067070801,35143,243219,310461
1630067070811,35165,243216,310447
1630067070821,35168,243229,310496
1630067070831,35167,243196,310458
1630067070841,35184,243251,310489
1630067070851,35198,243260,310443
1630067070861,35202,243264,310501
1630067070871,35215,243304,310488
1630067070881,35228,243271,310452
1630067070891,35231,243324,310493
1630067070901,35250,243302,310524
1630067070911,35251,243309,310486
1630067070921,35274,243339,310520
1630067070931,35276,243344,310512
1630067070941,35297,243363,310495
1630067070951,35305,243364,310500
1630067070961,35312,243373,310560
1630067070971,35319,243407,310545
1630067070981,35336,243387,310498
1630067070991,35343,243409,310539
1630067071001,35357,243417,310504
1630067071011,35363,243435,310566
1630067071021,35377,243443,310521
1630067071031,35386,243428,310541
1630067071041,35400,243426,310536
1630067071051,35409,243448,310537
1630067071061,35417,243460,310546
1630067071071,35435,243462,310524
1630067071081,35451,243531,310561
1630067071091,35457,243545,310526
1630067071101,35455,243532,310565
1630067071111,35481,243528,310499
1630067071121,35485,243527,310568
1630067071131,35498,243523,310551
1630067071141,35510,243566,310547
1630067071151,35527,243587,310539
1630067071161,35538,243588,310578
1630067071171,35555,243629,310596
1630067071181,35560,243630,310554
1630067071191,35569,243641,310614
1630067071201,35580,243656,310602
1630067071211,35597,243651,310618
1630067071221,35605,243716,310559
1630067071231,35624,243681,310597
1630067071241,35624,243692,310562
1630067071251,35643,243716,310597
1630067071261,35666,243787,310613
1630067071271,35659,243784,310594
1630067071281,35683,243789,310575
1630067071291,35695,243800,310567
1630067071301,35707,243795,310652
1630067071311,35717,243809,310653
1630067071321,35735,243858,310624
1630067071331,35741,243857,310630
1630067071341,35753,243841,310601
1630067071351,35752,243824,310633
1630067071361,35752,243774,310570
1630067071371,35749,243782,310595
1630067071381,35740,243754,310608
1630067071391,35734,243729,310588
1630067071401,35709,243699,310602
1630067071411,35690,243680,310538
1630067071421,35685,243668,310550
1630067071431,35661,243626,310530
1630067071441,35647,243622,310513
1630067071451,35630,243618,310523
1630067071461,35617,243594,310537
1630067071471,35604,243594,310531
1630067071481,35589,243603,310507
1630067071491,35576,243545,310490
1630067071501,35567,243532,310519
1630067071511,35562,243554,310516
1630067071521,35552,243539,310467
1630067071531,35551,243537,310514
1630067071541,35546,243576,310510
1630067071551,35540,243545,310443
1630067071561,35539,243545,310511
1630067071571,35534,243554,310469
1630067071581,35532,243580,310509
1630067071591,35530,243525,310474
1630067071601,35533,243560,310552
1630067071611,35531,243548,310472
1630067071621,35536,243559,310499
1630067071631,35524,243533,310465
1630067071641,35526,243531,310468
1630067071651,35524,243535,310458
1630067071661,35525,243574,310473
1630067071671,35514,243549,310463
1630067071681,35508,243534,310483
1630067071691,35509,243525,310515
1630067071701,35506,243539,310465
1630067071711,35502,243519,310446
1630067071721,35498,243529,310438
1630067071731,35495,243520,310480
1630067071741,35496,243524,310453
1630067071751,35494,243550,310471
1630067071761,35494,243524,310463
1630067071771,35475,243511,310437
1630067071781,35492,243547,310441
1630067071791,35489,243498,310441
1630067071801,35491,243551,310426
1630067071811,35493,243562,310459
1630067071821,35499,243558,310406
1630067071831,35505,243537,310442
1630067071841,35510,243559,310482
1630067071851,35518,243532,310440
1630067071861,35520,243555,310420
1630067071871,35515,243582,310444
1630067071881,35527,243590,310436
1630067071891,35540,243580,310430
1630067071901,35553,243637,310421
1630067071911,35552,243635,310459
1630067071921,35559,243631,310388
1630067071931,35582,243637,310418
1630067071941,35576,243639,310487
1630067071951,35587,243650,310438
1630067071961,35606,243665,310435
1630067071971,35603,243701,310450
1630067071981,35615,243700,310430
1630067071991,35624,243685,310438
1630067072001,35626,243737,310465
1630067072011,35639,243738,310441
1630067072021,35650,243740,310437
1630067072031,35654,243749,310453
1630067072041,35669,243751,310422
1630067072051,35677,243770,310454
1630067072061,35685,243751,310432
1630067072071,35707,243777,310464
1630067072081,35710,243835,310471
1630067072091,35726,243806,310476
1630067072101,35735,243840,310457
1630067072111,35737,243828,310469
1630067072121,35746,243843,310482
1630067072131,35760,243838,310482
1630067072141,35763,243880,310496
1630067072151,35777,243897,310475
1630067072161,35789,243905,310509
1630067072171,35793,243943,310507
1630067072181,35813,243897,310518
1630067072191,35814,243953,310470
1630067072201,35829,243951,310503
1630067072211,35839,243963,310506
1630067072221,35849,243958,310498
1630067072231,35870,243994,310498
1630067072241,35885,243975,310494
1630067072251,35883,243991,310543
1630067072261,35895,244043,310535
1630067072271,35907,244028,310498
1630067072281,35916,244032,310538
1630067072291,35926,244072,310519
1630067072301,35940,244044,310555
1630067072311,35952,244061,310540
1630067072321,35966,244151,310553
1630067072331,35980,244126,310549
1630067072341,35991,244124,310551
1630067072351,36004,244092,310545
1630067072361,36002,244100,310525
1630067072371,36003,244039,310517
1630067072381,36003,244030,310530
1630067072391,35996,244071,310514
1630067072401,35980,243995,310496
1630067072411,35966,243961,310490
1630067072421,35926,243916,310441
1630067072431,35919,243935,310479
1630067072441,35895,243885,310487
1630067072451,35875,243892,310432
1630067072461,35851,243827,310409
1630067072471,35839,243812,310437
1630067072481,35811,243797,310406
1630067072491,35804,243815,310389
1630067072501,35786,243783,310374
1630067072511,35778,243749,310422
1630067072521,35763,243741,310388
1630067072531,35750,243752,310367
1630067072541,35742,243730,310348
1630067072551,35731,243732,310337
1630067072561,35735,243712,310380
1630067072571,35721,243716,310359
1630067072581,35706,243744,310378
1630067072591,35716,243746,310349
1630067072601,35712,243765,310315
1630067072611,35706,243718,310325
1630067072621,35708,243710,310347
1630067072631,35701,243754,310319
1630067072641,35697,243734,310351
1630067072651,35699,243751,310296
1630067072661,35700,243741,310294
1630067072671,35699,243717,310313
1630067072681,35689,243773,310328
1630067072691,35686,243740,310286
1630067072701,35694,243718,310312
1630067072711,35679,243723,310351
1630067072721,35681,243696,310306
1630067072731,35660,243698,310315
1630067072741,35656,243726,310293
1630067072751,35653,243716,310305
1630067072761,35665,243691,310299
1630067072771,35655,243690,310282
1630067072781,35650,243667,310279
1630067072791,35647,243677,310248
1630067072801,35650,243723,310301
1630067072811,35644,243690,310274
1630067072821,35657,243716,310298
1630067072831,35657,243722,310279
1630067072841,35655,243734,310289
1630067072851,35665,243757,310275
1630067072861,35665,243745,310277
1630067072871,35665,243726,310288
1630067072881,35687,243765,310276
1630067072891,35679,243766,310325
1630067072901,35692,243789,310278
1630067072911,35686,243791,310305
1630067072921,35702,243798,310294
1630067072931,35710,243817,310309
1630067072941,35707,243831,310328
1630067072951,35720,243889,310330
1630067072961,35732,243853,310312
1630067072971,35738,243839,310290
1630067072981,35755,243872,310303
1630067072991,35760,243855,310301
1630067073001,35769,243881,310350
1630067073011,35784,243952,310333
1630067073021,35786,243908,310333
1630067073031,35803,243895,310368
1630067073041,35812,243944,310364
1630067073051,35820,243978,310377
1630067073061,35825,243988,310386
1630067073071,35845,243986,310377
1630067073081,35846,243985,310393
1630067073091,35860,243973,310362
1630067073101,35867,244002,310377
1630067073111,35881,244059,310400
1630067073121,35890,244013,310380
1630067073131,35894,244065,310365
1630067073141,35918,244064,310352
1630067073151,35920,244050,310379
1630067073161,35952,244065,310363
1630067073171,35945,244102,310393
1630067073181,35958,244132,310404
1630067073191,35965,244130,310419
1630067073201,35968,244091,310376
1630067073211,35977,244095,310401
1630067073221,35998,244138,310421
1630067073231,36004,244158,310419
1630067073241,36016,244172,310431
1630067073251,36032,244196,310414
1630067073261,36050,244173,310429
1630067073271,36053,244211,310417
1630067073281,36071,244218,310453
1630067073291,36083,244221,310440
1630067073301,36096,244249,310441
1630067073311,36110,244262,310439
1630067073321,36118,244258,310456
1630067073331,36130,244241,310418
1630067073341,36131,244248,310424
1630067073351,36132,244216,310416
1630067073361,36134,244208,310382
1630067073371,36120,244181,310434
1630067073381,36113,244188,310367
1630067073391,36099,244133,310415
1630067073401,36062,244101,310353
1630067073411,36042,244059,310339
1630067073421,36017,244037,310328
1630067073431,35994,244042,310293
1630067073441,35966,243979,310329
1630067073451,35945,243943,310277
1630067073461,35930,243943,310279
1630067073471,35913,243968,310305
1630067073481,35895,243926,310267
1630067073491,35876,243905,310282
1630067073501,35872,243897,310231
1630067073511,35857,243915,310261
1630067073521,35848,243864,310277
1630067073531,35847,243909,310261
1630067073541,35840,243892,310237
1630067073551,35825,243891,310219
1630067073561,35827,243876,310274
1630067073571,35821,243872,310268
1630067073581,35817,243877,310232
1630067073591,35812,243884,310258
1630067073601,35812,243892,310245
1630067073611,35806,243909,310215
1630067073621,35812,243876,310220
1630067073631,35809,243880,310249
1630067073641,35795,243886,310239
1630067073651,35795,243870,310223
1630067073661,35796,243865,310189
1630067073671,35784,243860,310271
1630067073681,35777,243843,310188
1630067073691,35773,243873,310233
1630067073701,35777,243884,310222
1630067073711,35763,243841,310244
1630067073721,35763,243879,310207
1630067073731,35754,243854,310203
1630067073741,35754,243833,310213
1630067073751,35744,243845,310239
1630067073761,35744,243840,310212
1630067073771,35734,243856,310205
1630067073781,35737,243885,310234
1630067073791,35742,243865,310238
1630067073801,35743,243875,310188
1630067073811,35745,243851,310187
1630067073821,35755,243867,310190
1630067073831,35753,243880,310175
1630067073841,35758,243887,310203
1630067073851,35762,243882,310207
1630067073861,35773,243897,310231
1630067073871,35769,243929,310241
1630067073881,35791,243925,310203
1630067073891,35789,243957,310217
1630067073901,35797,243927,310229
1630067073911,35808,243959,310220
1630067073921,35808,243985,310231
1630067073931,35822,243978,310219
1630067073941,35835,243993,310207
1630067073951,35851,243991,310292
1630067073961,35861,243986,310244
1630067073971,35868,244041,310265
1630067073981,35870,244032,310258
1630067073991,35878,244058,310281
1630067074001,35898,244056,310324
1630067074011,35903,244084,310249
1630067074021,35914,244035,310286
1630067074031,35930,244083,310291
1630067074041,35926,244080,310317
1630067074051,35940,244133,310294
1630067074061,35953,244096,310268
1630067074071,35960,244161,310275
1630067074081,35971,244169,310299
1630067074091,35987,244191,310309
1630067074101,35989,244182,310313
1630067074111,36004,244189,310301
1630067074121,36008,244172,310334
1630067074131,36017,244186,310311
1630067074141,36039,244195,310310
1630067074151,36045,244249,310284
1630067074161,36047,244252,310357
1630067074171,36066,244238,310329
1630067074181,36076,244265,310327
1630067074191,36087,244319,310344
1630067074201,36096,244268,310353
1630067074211,36109,244341,310355
1630067074221,36121,244317,310344
1630067074231,36129,244335,310361
1630067074241,36145,244362,310363
1630067074251,36149,244311,310342
1630067074261,36155,244317,310334
1630067074271,36151,244313,310325
1630067074281,36153,244337,310344
1630067074291,36140,244276,310300
1630067074301,36116,244225,310287
1630067074311,36088,244186,310274
1630067074321,36072,244154,310297
1630067074331,36045,244162,310289
1630067074341,36030,244132,310289
1630067074351,35995,244104,310264
1630067074361,35972,244054,310252
1630067074371,35947,244007,310262
1630067074381,35943,244083,310216
1630067074391,35915,244010,310241
1630067074401,35901,244022,310211
1630067074411,35896,243975,310223
1630067074421,35878,243995,310234
1630067074431,35867,243976,310200
1630067074441,35860,243997,310235
1630067074451,35857,244042,310228
1630067074461,35852,244006,310252
1630067074471,35845,244005,310237
1630067074481,35844,243965,310207
1630067074491,35838,243978,310263
1630067074501,35847,243988,310216
1630067074511,35846,244024,310247
1630067074521,35825,244027,310224
1630067074531,35847,244004,310239
1630067074541,35834,244012,310191
1630067074551,35831,243994,310230
1630067074561,35832,243986,310225
1630067074571,35819,243995,310184
1630067074581,35817,243955,310200
1630067074591,35808,243946,310204
1630067074601,35803,243960,310200
1630067074611,35789,243943,310193
1630067074621,35789,243982,310176
1630067074631,35770,243946,310169
1630067074641,35773,243946,310171
1630067074651,35767,243961,310135
1630067074661,35774,243915,310141
1630067074671,35769,243950,310165
1630067074681,35757,243946,310168
1630067074691,35767,243938,310152
1630067074701,35754,243965,310176
1630067074711,35754,243966,310143
1630067074721,35763,243940,310176
1630067074731,35762,243977,310147
1630067074741,35761,243988,310155
1630067074751,35766,243990,310145
1630067074761,35776,243997,310153
1630067074771,35772,243989,310188
1630067074781,35776,243983,310156
1630067074791,35786,244040,310177
1630067074801,35792,244030,310154
1630067074811,35800,244037,310173
1630067074821,35799,244019,310156
1630067074831,35811,244041,310201
1630067074841,35823,244053,310191
1630067074851,35830,244070,310193
1630067074861,35830,244082,310226
1630067074871,35837,244081,310195
1630067074881,35846,244079,310201
1630067074891,35854,244124,310170
1630067074901,35861,244113,310224
1630067074911,35873,244116,310215
1630067074921,35878,244126,310231
1630067074931,35887,244165,310221
1630067074941,35887,244163,310211
1630067074951,35900,244158,310214
1630067074961,35909,244197,310176
1630067074971,35913,244193,310220
1630067074981,35925,244179,310244
1630067074991,35942,244193,310205
1630067075001,35936,244238,310241
1630067075011,35942,244246,310239
1630067075021,35957,244226,310249
1630067075031,35966,244242,310266
1630067075041,35978,244227,310253
1630067075051,35990,244305,310251
1630067075061,36000,244256,310267
1630067075071,35997,244280,310255
1630067075081,36011,244290,310238
1630067075091,36014,244275,310266
1630067075101,36009,244286,310262
1630067075111,35999,244202,310237
1630067075121,35990,244253,310186
1630067075131,35975,244153,310188
1630067075141,35956,244147,310191
1630067075151,35918,244104,310156
1630067075161,35880,244039,310172
1630067075171,35852,244033,310113
1630067075181,35833,244048,310120
1630067075191,35801,244006,310111
1630067075201,35774,243959,310100
1630067075211,35754,243955,310125
1630067075221,35735,243932,310143
1630067075231,35715,243916,310094
1630067075241,35703,243902,310070
1630067075251,35692,243911,310060
1630067075261,35675,243867,310062
1630067075271,35662,243950,310042
1630067075281,35661,243912,310044
1630067075291,35649,243942,310029
1630067075301,35639,243915,310074
1630067075311,35641,243898,310040
1630067075321,35650,243905,310023
1630067075331,35631,243909,310046
1630067075341,35643,243930,310039
1630067075351,35633,243886,310029
1630067075361,35634,243941,310016
1630067075371,35630,243899,310070
1630067075381,35631,243900,310010
1630067075391,35621,243907,309994
1630067075401,35611,243870,310012
1630067075411,35610,243849,310013
1630067075421,35601,243867,309978
1630067075431,35587,243859,309965
1630067075441,35583,243839,309959
1630067075451,35567,243803,309976
1630067075461,35554,243808,309978
1630067075471,35552,243791,309965
1630067075481,35540,243816,309949
1630067075491,35540,243810,309901
1630067075501,35541,243807,309916
1630067075511,35534,243823,309924
1630067075521,35534,243807,309905
1630067075531,35529,243798,309942
1630067075541,35527,243807,309908
1630067075551,35532,243835,309934
1630067075561,35530,243865,309938
1630067075571,35534,243872,309946
1630067075581,35548,243829,309908
1630067075591,35546,243843,309915
1630067075601,35552,243887,309905
1630067075611,35560,243865,309938
1630067075621,35566,243884,309963
1630067075631,35576,243873,309966
1630067075641,35586,243894,309974
1630067075651,35574,243901,309961
1630067075661,35594,243927,309935
1630067075671,35593,243933,309969
1630067075681,35600,243923,309967
1630067075691,35606,243946,309963
1630067075701,35615,243944,310004
1630067075711,35622,243994,309996
1630067075721,35639,243959,309963
1630067075731,35637,243993,309987
1630067075741,35655,244047,309952
1630067075751,35654,243999,309934
1630067075761,35667,244015,309976
1630067075771,35666,244034,309989
1630067075781,35681,244016,309975
1630067075791,35685,244007,309966
1630067075801,35696,244056,309987
1630067075811,35705,244038,310024
1630067075821,35710,244059,310000
1630067075831,35715,244091,309996
1630067075841,35727,244086,309997
1630067075851,35733,244082,309998
1630067075861,35740,244107,309979
1630067075871,35753,244104,309985
1630067075881,35758,244107,309971
1630067075891,35758,244120,309981
1630067075901,35747,244053,309955
1630067075911,35740,244052,309938
1630067075921,35723,244016,309935
1630067075931,35698,243958,309877
1630067075941,35651,243941,309901
1630067075951,35627,243850,309880
1630067075961,35580,243825,309852
1630067075971,35549,243801,309832
1630067075981,35513,243780,309806
1630067075991,35483,243750,309803
1630067076001,35457,243687,309761
1630067076011,35422,243702,309771
1630067076021,35391,243682,309773
1630067076031,35368,243603,309757
1630067076041,35343,243599,309720
1630067076051,35318,243577,309704
1630067076061,35306,243547,309742
1630067076071,35287,243533,309733
1630067076081,35267,243533,309701
1630067076091,35248,243549,309682
1630067076101,35237,243552,309723
1630067076111,35229,243534,309723
1630067076121,35213,243505,309676
1630067076131,35204,243488,309707
1630067076141,35204,243484,309647
1630067076151,35197,243502,309634
1630067076161,35175,243484,309665
1630067076171,35171,243497,309650
1630067076181,35160,243502,309600
1630067076191,35142,243456,309602
1630067076201,35137,243463,309621
1630067076211,35121,243436,309608
1630067076221,35107,243424,309589
1630067076231,35097,243395,309594
1630067076241,35086,243375,309599
1630067076251,35072,243395,309608
1630067076261,35061,243363,309578
1630067076271,35045,243377,309561
1630067076281,35034,243376,309566
1630067076291,35022,243364,309581
1630067076301,35025,243367,309555
1630067076311,35014,243348,309552
1630067076321,35007,243371,309519
1630067076331,35001,243360,309564
1630067076341,34996,243378,309546
1630067076351,34996,243350,309548
1630067076361,35001,243370,309540
1630067076371,35000,243400,309531
1630067076381,34995,243387,309536
1630067076391,34995,243358,309527
1630067076401,35005,243407,309522
1630067076411,35007,243406,309533
1630067076421,35013,243398,309544
1630067076431,35005,243379,309559
1630067076441,35021,243401,309536
1630067076451,35024,243431,309550
1630067076461,35032,243395,309551
1630067076471,35040,243422,309497
1630067076481,35043,243436,309539
1630067076491,35044,243456,309574
1630067076501,35055,243438,309560
1630067076511,35058,243482,309548
1630067076521,35069,243447,309541
1630067076531,35073,243488,309566
1630067076541,35077,243488,309564
1630067076551,35087,243495,309554
1630067076561,35093,243468,309561
1630067076571,35099,243503,309571
1630067076581,35102,243511,309600
1630067076591,35105,243506,309536
1630067076601,35113,243514,309568
1630067076611,35134,243494,309568
1630067076621,35117,243538,309538
1630067076631,35129,243583,309536
1630067076641,35141,243554,309549
1630067076651,35145,243569,309536
1630067076661,35158,243570,309532
1630067076671,35159,243580,309577
1630067076681,35162,243587,309531
1630067076691,35171,243552,309561
1630067076701,35164,243566,309546
1630067076711,35158,243498,309525
1630067076721,35140,243474,309552
1630067076731,35112,243425,309519
1630067076741,35071,243401,309440
1630067076751,35049,243318,309449
1630067076761,34994,243270,309478
1630067076771,34952,243228,309373
1630067076781,34915,243203,309353
1630067076791,34878,243119,309344
1630067076801,34836,243096,309297
1630067076811,34808,243038,309266
1630067076821,34769,243014,309262
1630067076831,34737,243008,309237
1630067076841,34714,242945,309184
1630067076851,34684,242886,309159
1630067076861,34658,242902,309165
1630067076871,34633,242856,309143
1630067076881,34608,242803,309118
1630067076891,34589,242803,309107
1630067076901,34564,242812,309109
1630067076911,34542,242746,309081
1630067076921,34535,242776,309044
1630067076931,34517,242755,309026
1630067076941,34504,242702,309081
1630067076951,34482,242741,309098
1630067076961,34484,242693,309022
1630067076971,34461,242702,309024
1630067076981,34458,242701,309069
1630067076991,34444,242670,309028
1630067077001,34432,242659,309021
1630067077011,34418,242612,309011
1630067077021,34413,242660,308991
1630067077031,34399,242624,309017
1630067077041,34386,242617,308959
1630067077051,34369,242563,308977
1630067077061,34355,242542,308953
1630067077071,34348,242538,308968
1630067077081,34332,242548,308911
1630067077091,34331,242527,308893
1630067077101,34310,242517,308894
1630067077111,34302,242467,308879
1630067077121,34296,242505,308865
1630067077131,34281,242505,308828
1630067077141,34276,242457,308833
1630067077151,34273,242427,308832
1630067077161,34273,242412,308771
1630067077171,34267,242464,308798
1630067077181,34266,242443,308770
1630067077191,34262,242462,308795
1630067077201,34265,242439,308808
1630067077211,34273,242413,308776
1630067077221,34264,242389,308785
1630067077231,34265,242428,308811
1630067077241,34272,242411,308820
1630067077251,34282,242423,308749
1630067077261,34281,242416,308809
1630067077271,34291,242413,308798
1630067077281,34288,242446,308806
1630067077291,34294,242432,308805
1630067077301,34300,242441,308768
1630067077311,34301,242431,308768
1630067077321,34310,242384,308764
1630067077331,34317,242420,308754
1630067077341,34329,242368,308762
1630067077351,34329,242360,308736
1630067077361,34344,242402,308692
1630067077371,34347,242386,308699
1630067077381,34343,242389,308701
1630067077391,34364,242361,308709
1630067077401,34364,242305,308698
1630067077411,34380,242394,308696
1630067077421,34384,242434,308693
1630067077431,34391,242399,308702
1630067077441,34400,242382,308709
1630067077451,34416,242410,308703
1630067077461,34425,242463,308678
1630067077471,34436,242455,308733
1630067077481,34449,242444,308757
1630067077491,34456,242483,308761
1630067077501,34472,242551,308771
1630067077511,34480,242510,308826
1630067077521,34498,242540,308816
1630067077531,34511,242531,308856
1630067077541,34519,242597,308852
1630067077551,34538,242585,308879
1630067077561,34537,242601,308877
1630067077571,34535,242608,308873
1630067077581,34517,242564,308847
1630067077591,34501,242517,308859
1630067077601,34486,242476,308882
1630067077611,34445,242463,308814
1630067077621,34407,242423,308834
1630067077631,34361,242378,308803
1630067077641,34329,242348,308806
1630067077651,34291,242309,308756
1630067077661,34255,242286,308769
1630067077671,34221,242266,308743
1630067077681,34194,242223,308697
1630067077691,34168,242170,308725
1630067077701,34137,242185,308724
1630067077711,34119,242191,308718
1630067077721,34102,242162,308705
1630067077731,34078,242157,308749
1630067077741,34066,242156,308711
1630067077751,34044,242146,308712
1630067077761,34029,242107,308737
1630067077771,34022,242090,308736
1630067077781,34020,242108,308713
1630067077791,33995,242102,308741
1630067077801,33998,242160,308756
1630067077811,33999,242101,308764
1630067077821,33999,242131,308762
1630067077831,33997,242105,308812
1630067077841,33997,242122,308779
1630067077851,34003,242095,308769
1630067077861,33988,242079,308780
1630067077871,33979,242109,308794
1630067077881,33983,242040,308764
1630067077891,33975,242090,308800
1630067077901,33974,242063,308755
1630067077911,33955,242053,308765
1630067077921,33950,242033,308787
1630067077931,33945,242011,308792
1630067077941,33939,242024,308739
1630067077951,33939,242037,308788
1630067077961,33955,242032,308784
1630067077971,33944,242070,308760
1630067077981,33935,242076,308810
1630067077991,33936,242068,308810
1630067078001,33946,242075,308842
1630067078011,33955,242074,308834
1630067078021,33961,242078,308837
1630067078031,33968,242096,308858
1630067078041,33980,242132,308844
1630067078051,33986,242149,308877
1630067078061,33992,242116,308891
1630067078071,34008,242158,308901
1630067078081,34007,242160,308895
1630067078091,34016,242182,308883
1630067078101,34049,242170,308976
1630067078111,34048,242209,308914
1630067078121,34063,242155,308936
1630067078131,34071,242202,308927
1630067078141,34084,242234,308905
1630067078151,34101,242233,308906
1630067078161,34104,242225,308911
1630067078171,34119,242208,308937
1630067078181,34131,242257,308948
1630067078191,34141,242256,308954
1630067078201,34153,242265,308922
1630067078211,34165,242258,308940
1630067078221,34174,242271,308997
1630067078231,34185,242334,308996
1630067078241,34201,242288,308960
1630067078251,34206,242324,308997
1630067078261,34227,242348,308957
1630067078271,34239,242333,309020
1630067078281,34250,242348,309024
1630067078291,34257,242379,309024
1630067078301,34273,242351,309009
1630067078311,34287,242375,309025
1630067078321,34299,242410,309043
1630067078331,34312,242399,309055
1630067078341,34334,242417,309076
1630067078351,34350,242445,309091
1630067078361,34363,242466,309087
1630067078371,34383,242504,309077
1630067078381,34386,242515,309095
1630067078391,34411,242510,309099
1630067078401,34430,242543,309119
1630067078411,34443,242512,309135
1630067078421,34454,242535,309087
1630067078431,34450,242513,309092
1630067078441,34458,242487,309111
1630067078451,34444,242475,309044
1630067078461,34433,242450,309046
1630067078471,34415,242418,309066
1630067078481,34390,242381,309057
1630067078491,34371,242354,309020
1630067078501,34351,242326,309029
1630067078511,34324,242298,309019
1630067078521,34301,242237,309005
1630067078531,34279,242243,309001
1630067078541,34267,242230,308958
1630067078551,34254,242216,308971
1630067078561,34223,242215,308934
1630067078571,34217,242220,308960
1630067078581,34228,242194,308911
1630067078591,34203,242174,308965
1630067078601,34204,242153,308932
1630067078611,34191,242117,308936
1630067078621,34188,242160,308933
1630067078631,34189,242142,308963
1630067078641,34190,242200,308950
1630067078651,34196,242152,308943
1630067078661,34203,242143,308927
1630067078671,34202,242187,308949
1630067078681,34210,242176,308968
1630067078691,34204,242166,308978
1630067078701,34212,242195,308957
1630067078711,34235,242190,308943
1630067078721,34232,242177,308994
1630067078731,34228,242199,308966
1630067078741,34228,242213,308970
1630067078751,34234,242236,308986
1630067078761,34244,242174,309000
1630067078771,34236,242211,309006
1630067078781,34238,242178,309025
1630067078791,34238,242207,309019
1630067078801,34240,242226,309040
1630067078811,34246,242194,309016
1630067078821,34255,242182,309055
1630067078831,34256,242211,309051
1630067078841,34259,242189,309040
1630067078851,34270,242238,309039
1630067078861,34278,242231,309041
1630067078871,34286,242219,309025
1630067078881,34305,242260,309089
1630067078891,34310,242281,309092
1630067078901,34321,242302,309131
1630067078911,34320,242279,309112
1630067078921,34345,242265,309089
1630067078931,34358,242292,309127
1630067078941,34378,242310,309167
1630067078951,34385,242352,309122
1630067078961,34404,242348,309156
1630067078971,34417,242377,309143
1630067078981,34438,242399,309192
1630067078991,34453,242417,309174
1630067079001,34459,242412,309178
1630067079011,34485,242415,309202
1630067079021,34498,242449,309184
1630067079031,34520,242475,309192
1630067079041,34534,242466,309201
1630067079051,34536,242492,309175
1630067079061,34563,242532,309226
1630067079071,34581,242535,309244
1630067079081,34594,242555,309278
1630067079091,34600,242552,309277
1630067079101,34619,242560,309271
1630067079111,34640,242593,309275
1630067079121,34655,242606,309291
1630067079131,34664,242638,309316
1630067079141,34695,242650,309370
1630067079151,34710,242646,309327
1630067079161,34718,242649,309332
1630067079171,34738,242686,309357
1630067079181,34763,242709,309372
1630067079191,34773,242724,309389
1630067079201,34785,242740,309416
1630067079211,34807,242737,309376
1630067079221,34823,242751,309455
1630067079231,34841,242769,309423
1630067079241,34856,242814,309440
1630067079251,34875,242847,309430
1630067079261,34888,242853,309459
1630067079271,34911,242844,309448
1630067079281,34927,242884,309486
1630067079291,34947,242923,309480
1630067079301,34963,242947,309486
1630067079311,34989,242971,309494
1630067079321,35006,242952,309525
1630067079331,35020,242950,309530
1630067079341,35039,242979,309495
1630067079351,35053,242990,309538
1630067079361,35047,242958,309519
1630067079371,35055,242913,309496
1630067079381,35036,242899,309497
1630067079391,35027,242898,309470
1630067079401,35012,242852,309437
1630067079411,34995,242832,309415
1630067079421,34981,242826,309451
1630067079431,34965,242770,309417
1630067079441,34946,242772,309420
1630067079451,34935,242724,309383
1630067079461,34918,242756,309400
1630067079471,34911,242681,309426
1630067079481,34904,242687,309383
1630067079491,34899,242683,309416
1630067079501,34896,242708,309389
1630067079511,34884,242724,309411
1630067079521,34869,242696,309396
1630067079531,34873,242714,309383
1630067079541,34872,242669,309401
1630067079551,34869,242705,309377
1630067079561,34879,242685,309392
1630067079571,34882,242694,309383
1630067079581,34879,242697,309397
1630067079591,34885,242701,309382
1630067079601,34889,242687,309398
1630067079611,34901,242724,309398
1630067079621,34901,242705,309378
1630067079631,34912,242712,309368
1630067079641,34906,242669,309391
1630067079651,34905,242714,309404
1630067079661,34914,242723,309400
1630067079671,34914,242708,309387
1630067079681,34924,242701,309391
1630067079691,34926,242689,309386
1630067079701,34931,242672,309442
1630067079711,34938,242730,309389
1630067079721,34933,242681,309399
1630067079731,34946,242713,309441
1630067079741,34948,242717,309420
1630067079751,34951,242685,309425
1630067079761,34954,242724,309437
1630067079771,34965,242761,309444
1630067079781,34966,242726,309444
1630067079791,34989,242752,309467
1630067079801,34993,242771,309510
1630067079811,35003,242803,309490
1630067079821,35019,242804,309487
1630067079831,35025,242807,309497
1630067079841,35035,242807,309510
1630067079851,35061,242863,309544
1630067079861,35067,242821,309535
1630067079871,35080,242894,309545
1630067079881,35084,242837,309571
1630067079891,35103,242909,309569
1630067079901,35120,242890,309558
1630067079911,35131,242908,309578
1630067079921,35138,242943,309610
1630067079931,35157,242957,309642
1630067079941,35170,242982,309622
1630067079951,35187,243007,309654
1630067079961,35215,243024,309655
1630067079971,35226,243092,309704
1630067079981,35242,243095,309699
1630067079991,35251,243111,309740
1630067080001,35270,243130,309695
1630067080011,35280,243130,309765
1630067080021,35296,243168,309797
1630067080031,35319,243190,309819
1630067080041,35331,243172,309829
1630067080051,35347,243271,309877
1630067080061,35365,243253,309890
1630067080071,35391,243299,309914
1630067080081,35406,243341,309928
1630067080091,35422,243380,309979
1630067080101,35442,243405,309980
1630067080111,35460,243407,310022
1630067080121,35482,243479,310054
1630067080131,35502,243513,310064
1630067080141,35525,243490,310125
1630067080151,35545,243564,310178
1630067080161,35574,243585,310188
1630067080171,35585,243631,310215
1630067080181,35611,243669,310253
1630067080191,35628,243699,310236
1630067080201,35641,243738,310276
1630067080211,35667,243790,310319
1630067080221,35682,243826,310357
1630067080231,35701,243850,310396
1630067080241,35722,243856,310396
1630067080251,35743,243906,310445
1630067080261,35759,243930,310438
1630067080271,35795,243979,310454
1630067080281,35807,244005,310477
1630067080291,35827,244028,310524
1630067080301,35847,244025,310517
1630067080311,35871,244080,310504
1630067080321,35881,244093,310572
1630067080331,35907,244121,310571
1630067080341,35897,244101,310565
1630067080351,35920,244103,310552
1630067080361,35907,244135,310567
1630067080371,35909,244088,310602
1630067080381,35895,244099,310592
1630067080391,35899,244040,310582
1630067080401,35893,244063,310589
1630067080411,35875,244039,310550
1630067080421,35865,244033,310528
1630067080431,35854,244028,310506
1630067080441,35841,243985,310543
1630067080451,35830,243978,310550
1630067080461,35824,243995,310530
1630067080471,35818,243983,310518
1630067080481,35804,243973,310523
1630067080491,35816,244011,310497
1630067080501,35797,244016,310528
1630067080511,35805,243993,310558
1630067080521,35804,244009,310535
1630067080531,35801,243999,310533
1630067080541,35799,243994,310535
1630067080551,35795,244007,310537
1630067080561,35791,244001,310530
1630067080571,35798,244026,310531
1630067080581,35802,244002,310502
1630067080591,35806,244022,310537
1630067080601,35811,244037,310532
1630067080611,35811,244008,310562
1630067080621,35815,244035,310517
1630067080631,35822,244052,310512
1630067080641,35826,244038,310534
1630067080651,35830,244048,310539
1630067080661,35825,244062,310547
1630067080671,35821,244080,310502
1630067080681,35835,244056,310544
1630067080691,35839,244056,310524
1630067080701,35828,244082,310500
1630067080711,35831,244025,310491
1630067080721,35838,244056,310493
1630067080731,35837,244053,310507
1630067080741,35840,244046,310485
1630067080751,35839,244063,310504
1630067080761,35852,244083,310545
1630067080771,35860,244086,310512
1630067080781,35861,244099,310534
1630067080791,35864,244093,310501
1630067080801,35874,244097,310561
1630067080811,35881,244087,310539
1630067080821,35890,244134,310537
1630067080831,35885,244134,310514
1630067080841,35916,244113,310529
1630067080851,35916,244165,310567
1630067080861,35916,244133,310613
1630067080871,35929,244206,310583
1630067080881,35939,244182,310564
1630067080891,35948,244234,310567
1630067080901,35966,244199,310601
1630067080911,35971,244256,310574
1630067080921,35982,244245,310576
1630067080931,35997,244252,310613
1630067080941,36005,244287,310618
1630067080951,36018,244279,310657
1630067080961,36028,244333,310645
1630067080971,36034,244362,310643
1630067080981,36050,244334,310683
1630067080991,36077,244328,310636
1630067081001,36076,244337,310636
1630067081011,36100,244369,310688
1630067081021,36100,244380,310663
1630067081031,36114,244415,310668
1630067081041,36129,244451,310654
1630067081051,36132,244436,310687
1630067081061,36152,244437,310669
1630067081071,36164,244492,310680
1630067081081,36183,244494,310723
1630067081091,36192,244464,310723
1630067081101,36206,244460,310711
1630067081111,36216,244539,310735
1630067081121,36233,244511,310729
1630067081131,36236,244481,310741
1630067081141,36260,244512,310725
1630067081151,36270,244545,310734
1630067081161,36281,244566,310763
1630067081171,36289,244562,310738
1630067081181,36307,244600,310756
1630067081191,36308,244611,310756
1630067081201,36328,244616,310776
1630067081211,36343,244629,310820
1630067081221,36357,244632,310771
1630067081231,36368,244674,310779
1630067081241,36383,244662,310800
1630067081251,36395,244697,310785
1630067081261,36411,244698,310798
1630067081271,36417,244729,310776
1630067081281,36433,244699,310814
1630067081291,36442,244701,310756
1630067081301,36447,244704,310792
1630067081311,36443,244671,310769
1630067081321,36438,244650,310766
1630067081331,36428,244616,310727
1630067081341,36401,244614,310700
1630067081351,36394,244571,310735
1630067081361,36378,244526,310680
1630067081371,36362,244535,310663
1630067081381,36345,244518,310652
1630067081391,36326,244495,310675
1630067081401,36320,244468,310652
1630067081411,36302,244503,310633
1630067081421,36292,244465,310632
1630067081431,36287,244447,310606
1630067081441,36273,244475,310613
1630067081451,36267,244442,310599
1630067081461,36258,244447,310601
1630067081471,36242,244369,310598
1630067081481,36234,244432,310574
1630067081491,36243,244413,310548
1630067081501,36228,244424,310556
1630067081511,36226,244422,310551
1630067081521,36226,244439,310593
1630067081531,36223,244415,310547
1630067081541,36222,244417,310604
1630067081551,36227,244427,310592
1630067081561,36230,244442,310531
1630067081571,36230,244425,310565
1630067081581,36233,244436,310556
1630067081591,36219,244402,310557
1630067081601,36226,244432,310543
1630067081611,36218,244406,310515
1630067081621,36221,244426,310538
1630067081631,36222,244398,310520
1630067081641,36213,244379,310523
1630067081651,36203,244421,310530
1630067081661,36205,244360,310513
1630067081671,36203,244367,310478
1630067081681,36207,244372,310501
1630067081691,36205,244375,310502
1630067081701,36199,244399,310501
1630067081711,36197,244398,310544
1630067081721,36199,244374,310532
1630067081731,36204,244396,310518
1630067081741,36218,244391,310500
1630067081751,36218,244391,310492
1630067081761,36227,244417,310537
1630067081771,36218,244430,310528
1630067081781,36227,244447,310511
1630067081791,36245,244476,310555
1630067081801,36244,244430,310503
1630067081811,36252,244468,310502
1630067081821,36266,244462,310531
1630067081831,36277,244484,310561
1630067081841,36282,244481,310541
1630067081851,36293,244480,310543
1630067081861,36292,244507,310547
1630067081871,36308,244545,310549
1630067081881,36307,244521,310564
1630067081891,36330,244543,310566
1630067081901,36339,244556,310532
1630067081911,36347,244548,310559
1630067081921,36351,244562,310573
1630067081931,36366,244557,310596
1630067081941,36380,244569,310566
1630067081951,36389,244614,310576
1630067081961,36396,244587,310601
1630067081971,36409,244604,310609
1630067081981,36428,244634,310616
1630067081991,36441,244657,310624
1630067082001,36450,244662,310657
1630067082011,36458,244660,310629
1630067082021,36467,244643,310665
1630067082031,36483,244684,310651
1630067082041,36497,244702,310601
1630067082051,36502,244734,310619
1630067082061,36518,244715,310630
1630067082071,36527,244743,310691
1630067082081,36539,244764,310677
1630067082091,36552,244811,310649
1630067082101,36564,244812,310663
1630067082111,36573,244782,310689
1630067082121,36593,244797,310679
1630067082131,36612,244831,310730
1630067082141,36615,244854,310689
1630067082151,36630,244856,310708
1630067082161,36640,244863,310720
1630067082171,36645,244850,310714
1630067082181,36660,244910,310736
1630067082191,36669,244928,310716
1630067082201,36684,244912,310748
1630067082211,36698,244958,310761
1630067082221,36719,244946,310757
1630067082231,36723,244951,310744
1630067082241,36731,244963,310758
1630067082251,36730,244907,310760
1630067082261,36726,244876,310726
1630067082271,36709,244879,310697
1630067082281,36711,244851,310670
1630067082291,36693,244822,310693
1630067082301,36677,244807,310636
1630067082311,36662,244727,310631
1630067082321,36637,244734,310596
1630067082331,36613,244700,310611
1630067082341,36596,244728,310572
1630067082351,36577,244707,310593
1630067082361,36564,244663,310613
1630067082371,36552,244677,310555
1630067082381,36536,244653,310550
1630067082391,36515,244635,310514
1630067082401,36508,244669,310533
1630067082411,36500,244636,310528
1630067082421,36492,244647,310497
1630067082431,36473,244624,310493
1630067082441,36462,244600,310472
1630067082451,36470,244600,310511
1630067082461,36462,244614,310464
1630067082471,36455,244588,310471
1630067082481,36450,244645,310484
1630067082491,36452,244587,310498
1630067082501,36450,244581,310445
1630067082511,36453,244572,310451
1630067082521,36445,244584,310463
1630067082531,36446,244616,310454
1630067082541,36445,244578,310466
1630067082551,36439,244589,310445
1630067082561,36441,244571,310454
1630067082571,36435,244557,310436
1630067082581,36432,244570,310438
1630067082591,36425,244573,310426
1630067082601,36406,244561,310408
1630067082611,36418,244539,310385
1630067082621,36414,244548,310406
1630067082631,36420,244533,310382
1630067082641,36410,244575,310372
1630067082651,36410,244608,310414
1630067082661,36407,244586,310444
1630067082671,36407,244601,310397
1630067082681,36412,244586,310430
1630067082691,36417,244598,310422
1630067082701,36421,244624,310395
1630067082711,36423,244626,310399
1630067082721,36430,244638,310431
1630067082731,36437,244663,310408
1630067082741,36435,244685,310423
1630067082751,36454,244680,310412
1630067082761,36454,244717,310423
1630067082771,36463,244745,310438
1630067082781,36487,244731,310467
1630067082791,36487,244671,310485
1630067082801,36479,244738,310441
1630067082811,36496,244750,310433
1630067082821,36508,244805,310475
1630067082831,36521,244836,310487
1630067082841,36528,244820,310510
1630067082851,36539,244835,310490
1630067082861,36552,244878,310513
1630067082871,36565,244914,310544
1630067082881,36576,244882,310550
1630067082891,36592,244941,310528
1630067082901,36608,244955,310581
1630067082911,36620,244957,310591
1630067082921,36614,244974,310615
1630067082931,36627,245008,310580
1630067082941,36652,245003,310618
1630067082951,36666,245000,310617
1630067082961,36676,245053,310645
1630067082971,36679,245063,310638
1630067082981,36693,245081,310665
1630067082991,36710,245097,310701
1630067083001,36719,245130,310683
1630067083011,36731,245134,310738
1630067083021,36744,245167,310720
1630067083031,36761,245173,310714
1630067083041,36765,245141,310719
1630067083051,36785,245158,310706
1630067083061,36779,245210,310751
1630067083071,36810,245198,310767
1630067083081,36815,245230,310778
1630067083091,36835,245250,310781
1630067083101,36853,245252,310805
1630067083111,36866,245264,310794
1630067083121,36876,245259,310811
1630067083131,36879,245301,310781
1630067083141,36893,245288,310766
1630067083151,36906,245289,310780
1630067083161,36909,245322,310743
1630067083171,36903,245303,310779
1630067083181,36911,245254,310767
1630067083191,36897,245248,310780
1630067083201,36882,245229,310756
1630067083211,36870,245181,310746
1630067083221,36852,245153,310729
1630067083231,36836,245146,310724
1630067083241,36812,245107,310685
1630067083251,36800,245074,310719
1630067083261,36772,245066,310713
1630067083271,36764,245045,310721
1630067083281,36748,245024,310726
1630067083291,36732,245048,310696
1630067083301,36725,245033,310711
1630067083311,36715,244996,310705
1630067083321,36702,245043,310715
1630067083331,36699,245008,310694
1630067083341,36694,245004,310694
1630067083351,36690,245051,310725
1630067083361,36683,245033,310697
1630067083371,36684,245054,310686
1630067083381,36690,245036,310742
1630067083391,36682,245045,310669
1630067083401,36690,245035,310707
1630067083411,36690,245031,310710
1630067083421,36682,245036,310668
1630067083431,36679,245059,310671
1630067083441,36685,245033,310669
1630067083451,36686,245029,310700
1630067083461,36685,245008,310660
1630067083471,36683,245035,310648
1630067083481,36679,244985,310663
1630067083491,36677,245044,310617
1630067083501,36667,245035,310664
1630067083511,36663,244961,310637
1630067083521,36659,244982,310616
1630067083531,36662,245021,310629
1630067083541,36660,244995,310598
1630067083551,36655,245015,310614
1630067083561,36642,244958,310613
1630067083571,36638,244974,310614
1630067083581,36652,244984,310593
1630067083591,36652,245056,310603
1630067083601,36658,245011,310637
1630067083611,36661,244987,310602
1630067083621,36663,245009,310606
1630067083631,36663,244979,310598
1630067083641,36670,245034,310619
1630067083651,36678,244971,310605
1630067083661,36679,245037,310612
1630067083671,36691,245005,310650
1630067083681,36698,245080,310641
1630067083691,36703,245059,310613
1630067083701,36709,245066,310644
1630067083711,36716,245066,310634
1630067083721,36727,245097,310645
1630067083731,36744,245103,310627
1630067083741,36744,245090,310646
1630067083751,36758,245140,310638
1630067083761,36771,245139,310644
1630067083771,36768,245147,310674
1630067083781,36792,245152,310667
1630067083791,36794,245171,310673
1630067083801,36806,245174,310673
1630067083811,36813,245147,310649
1630067083821,36827,245188,310687
1630067083831,36833,245165,310679
1630067083841,36848,245200,310679
1630067083851,36853,245230,310679
1630067083861,36867,245215,310693
1630067083871,36877,245231,310678
1630067083881,36891,245219,310689
1630067083891,36895,245271,310678
1630067083901,36905,245277,310686
1630067083911,36908,245302,310652
1630067083921,36930,245287,310696
1630067083931,36938,245285,310687
1630067083941,36953,245304,310715
1630067083951,36956,245319,310692
1630067083961,36978,245299,310706
1630067083971,36977,245297,310719
1630067083981,36985,245324,310685
1630067083991,36982,245343,310707
1630067084001,36984,245304,310662
1630067084011,36975,245246,310656
1630067084021,36969,245258,310660
1630067084031,36947,245219,310607
1630067084041,36927,245183,310592
1630067084051,36895,245149,310571
1630067084061,36876,245134,310582
1630067084071,36850,245129,310598
1630067084081,36822,245089,310614
1630067084091,36800,245085,310546
1630067084101,36775,245034,310542
1630067084111,36753,245059,310546
1630067084121,36742,245055,310550
1630067084131,36727,244979,310522
1630067084141,36711,245020,310506
1630067084151,36707,245018,310510
1630067084161,36690,244990,310507
1630067084171,36679,244969,310511
1630067084181,36670,244989,310486
1630067084191,36663,244968,310494
1630067084201,36658,244988,310517
1630067084211,36650,244956,310491
1630067084221,36655,244993,310494
1630067084231,36655,244965,310506
1630067084241,36657,244997,310516
1630067084251,36652,244971,310489
1630067084261,36636,244965,310469
1630067084271,36635,244967,310466
1630067084281,36635,244955,310469
1630067084291,36630,244966,310398
1630067084301,36625,244958,310478
1630067084311,36623,244961,310447
1630067084321,36620,244978,310436
1630067084331,36613,244975,310458
1630067084341,36613,244946,310439
1630067084351,36608,244950,310424
1630067084361,36606,244932,310454
1630067084371,36599,244929,310456
1630067084381,36584,244934,310459
1630067084391,36592,244946,310424
1630067084401,36594,244887,310427
1630067084411,36598,244931,310427
1630067084421,36579,244933,310407
1630067084431,36585,244915,310438
1630067084441,36585,244946,310414
1630067084451,36583,244940,310415
1630067084461,36590,244940,310387
1630067084471,36594,244966,310394
1630067084481,36604,244949,310384
1630067084491,36603,244944,310421
1630067084501,36616,244968,310424
1630067084511,36617,244979,310441
1630067084521,36630,244977,310436
1630067084531,36636,245015,310392
1630067084541,36641,245017,310424
1630067084551,36653,245032,310469
1630067084561,36663,245030,310419
1630067084571,36674,245020,310482
1630067084581,36683,245081,310441
1630067084591,36696,245128,310475
1630067084601,36690,245057,310450
1630067084611,36700,245121,310453
1630067084621,36710,245085,310459
1630067084631,36715,245109,310452
1630067084641,36727,245105,310471
1630067084651,36742,245131,310469
1630067084661,36748,245123,310455
1630067084671,36761,245165,310454
1630067084681,36770,245146,310449
1630067084691,36788,245130,310498
1630067084701,36794,245174,310486
1630067084711,36807,245164,310501
1630067084721,36815,245189,310487
1630067084731,36812,245223,310517
1630067084741,36846,245232,310525
1630067084751,36860,245234,310495
1630067084761,36863,245273,310525
1630067084771,36878,245286,310474
1630067084781,36877,245285,310554
1630067084791,36889,245249,310486
1630067084801,36893,245266,310520
1630067084811,36897,245262,310526
1630067084821,36901,245257,310489
1630067084831,36898,245261,310475
1630067084841,36881,245217,310470
1630067084851,36867,245190,310463
1630067084861,36847,245130,310451
1630067084871,36815,245087,310417
1630067084881,36799,245065,310370
1630067084891,36758,245019,310400
1630067084901,36732,245028,310379
1630067084911,36703,244931,310341
1630067084921,36678,244963,310366
1630067084931,36652,244963,310339
1630067084941,36629,244925,310340
1630067084951,36606,244857,310369
1630067084961,36582,244862,310323
1630067084971,36562,244865,310271
1630067084981,36558,244856,310305
1630067084991,36531,244835,310297
1630067085001,36525,244834,310306
1630067085011,36517,244793,310255
1630067085021,36510,244803,310243
1630067085031,36489,244804,310234
1630067085041,36491,244822,310257
1630067085051,36486,244797,310284
1630067085061,36487,244777,310273
1630067085071,36480,244793,310236
1630067085081,36470,244769,310263
1630067085091,36459,244835,310197
1630067085101,36457,244778,310214
1630067085111,36453,244772,310228
1630067085121,36445,244768,310233
1630067085131,36437,244735,310209
1630067085141,36430,244744,310225
1630067085151,36426,244757,310227
1630067085161,36431,244752,310209
1630067085171,36411,244723,310187
1630067085181,36389,244701,310160
1630067085191,36380,244720,310153
1630067085201,36395,244713,310171
1630067085211,36386,244693,310162
1630067085221,36373,244719,310187
1630067085231,36371,244652,310153
1630067085241,36364,244706,310192
1630067085251,36359,244731,310154
1630067085261,36363,244706,310160
1630067085271,36357,244696,310171
1630067085281,36363,244761,310150
1630067085291,36365,244710,310136
1630067085301,36363,244696,310127
1630067085311,36369,244710,310142
1630067085321,36369,244730,310153
1630067085331,36378,244740,310154
1630067085341,36380,244748,310136
1630067085351,36384,244767,310160
1630067085361,36404,244726,310209
1630067085371,36409,244794,310207
1630067085381,36411,244799,310165
1630067085391,36423,244824,310189
1630067085401,36425,244842,310182
1630067085411,36425,244819,310212
1630067085421,36443,244854,310189
1630067085431,36446,244881,310178
1630067085441,36454,244865,310208
1630067085451,36464,244886,310166
1630067085461,36472,244864,310177
1630067085471,36485,244886,310199
1630067085481,36489,244904,310211
1630067085491,36496,244912,310229
1630067085501,36514,244941,310239
1630067085511,36513,244905,310205
1630067085521,36528,244937,310238
1630067085531,36540,244963,310275
1630067085541,36543,244936,310279
1630067085551,36554,244919,310281
1630067085561,36563,244958,310276
1630067085571,36577,244944,310252
1630067085581,36581,245006,310256
1630067085591,36590,245010,310262
1630067085601,36600,244988,310285
1630067085611,36613,244998,310281
1630067085621,36618,244997,310316
1630067085631,36628,244974,310278
1630067085641,36619,244992,310271
1630067085651,36609,244947,310247
1630067085661,36596,244898,310221
1630067085671,36564,244870,310211
1630067085681,36536,244850,310186
1630067085691,36502,244818,310183
1630067085701,36470,244776,310159
1630067085711,36443,244760,310159
1630067085721,36412,244717,310103
1630067085731,36374,244707,310109
1630067085741,36340,244681,310121
1630067085751,36315,244674,310091
1630067085761,36287,244611,310084
1630067085771,36270,244606,310066
1630067085781,36243,244608,310037
1630067085791,36231,244549,310017
1630067085801,36211,244584,310026
1630067085811,36203,244582,310020
1630067085821,36177,244526,309975
1630067085831,36162,244511,310016
1630067085841,36145,244521,310016
1630067085851,36131,244514,309969
1630067085861,36136,244504,309980
1630067085871,36119,244483,309986
1630067085881,36108,244511,309961
1630067085891,36110,244482,310001
1630067085901,36109,244461,309998
1630067085911,36098,244487,309981
1630067085921,36092,244507,309945
1630067085931,36086,244447,309965
1630067085941,36075,244462,309949
1630067085951,36069,244454,309994
1630067085961,36068,244438,309970
1630067085971,36047,244443,309934
1630067085981,36049,244439,309924
1630067085991,36034,244417,309930
1630067086001,36030,244413,309922
1630067086011,36021,244429,309932
1630067086021,36026,244422,309916
1630067086031,36017,244393,309905
1630067086041,35992,244424,309903
1630067086051,36006,244403,309882
1630067086061,35995,244395,309913
1630067086071,36003,244412,309910
1630067086081,36001,244420,309886
1630067086091,36001,244427,309906
1630067086101,35995,244403,309886
1630067086111,36006,244395,309903
1630067086121,36010,244422,309890
1630067086131,36013,244404,309901
1630067086141,36012,244430,309860
1630067086151,36020,244444,309905
1630067086161,36018,244432,309933
1630067086171,36033,244460,309887
1630067086181,36029,244455,309927
1630067086191,36052,244454,309909
1630067086201,36054,244482,309958
1630067086211,36054,244501,309936
1630067086221,36062,244504,309947
1630067086231,36064,244488,309985
1630067086241,36077,244525,309954
1630067086251,36084,244531,309974
1630067086261,36089,244557,309977
1630067086271,36099,244545,309959
1630067086281,36119,244610,309992
1630067086291,36125,244616,309997
1630067086301,36128,244556,309963
1630067086311,36142,244592,310028
1630067086321,36143,244588,310000
1630067086331,36161,244608,310013
1630067086341,36159,244619,310044
1630067086351,36177,244626,310038
1630067086361,36187,244679,310040
1630067086371,36192,244633,310012
1630067086381,36213,244682,310062
1630067086391,36209,244701,310007
1630067086401,36237,244721,310041
1630067086411,36243,244688,310075
1630067086421,36255,244758,310093
1630067086431,36273,244725,310088
1630067086441,36273,244738,310080
1630067086451,36283,244742,310058
1630067086461,36275,244670,310057
1630067086471,36277,244711,310066
1630067086481,36252,244673,310059
1630067086491,36226,244646,310009
1630067086501,36204,244604,310011
1630067086511,36175,244560,310015
1630067086521,36142,244554,309999
1630067086531,36118,244526,309994
1630067086541,36074,244513,309996
1630067086551,36043,244424,309989
1630067086561,36018,244418,309967
1630067086571,35986,244388,309959
1630067086581,35970,244403,309987
1630067086591,35941,244409,309938
1630067086601,35932,244388,309925
1630067086611,35914,244387,309937
1630067086621,35885,244347,309938
1630067086631,35879,244353,309948
1630067086641,35863,244287,309899
1630067086651,35853,244328,309940
1630067086661,35851,244332,309925
1630067086671,35837,244356,309913
1630067086681,35826,244328,309927
1630067086691,35826,244312,309899
1630067086701,35823,244356,309910
1630067086711,35820,244323,309902
1630067086721,35813,244308,309920
1630067086731,35810,244347,309898
1630067086741,35800,244327,309882
1630067086751,35801,244295,309923
1630067086761,35788,244263,309948
1630067086771,35782,244290,309899
1630067086781,35769,244294,309906
1630067086791,35770,244261,309922
1630067086801,35765,244302,309888
1630067086811,35752,244276,309906
1630067086821,35754,244288,309891
1630067086831,35742,244247,309935
1630067086841,35737,244245,309870
1630067086851,35726,244255,309891
1630067086861,35730,244238,309872
1630067086871,35727,244255,309876
1630067086881,35725,244270,309894
1630067086891,35729,244227,309887
1630067086901,35729,244279,309853
1630067086911,35726,244276,309884
1630067086921,35735,244231,309877
1630067086931,35743,244312,309902
1630067086941,35734,244290,309892
1630067086951,35744,244305,309904
1630067086961,35756,244313,309865
1630067086971,35761,244318,309866
1630067086981,35766,244313,309915
1630067086991,35780,244337,309869
1630067087001,35797,244356,309927
1630067087011,35802,244374,309967
1630067087021,35800,244379,309931
1630067087031,35808,244403,309935
1630067087041,35820,244398,309953
1630067087051,35832,244419,309971
1630067087061,35839,244411,309975
1630067087071,35855,244449,309963
1630067087081,35863,244445,309987
1630067087091,35873,244475,310001
