timestamp,green,ir,red
1631018753883,58719,317267,326479
1631018753893,58749,317277,326458
1631018753903,58778,317349,326481
1631018753913,58813,317346,326488
1631018753923,58835,317379,326499
1631018753933,58865,317289,326552
1631018753943,58870,317323,326587
1631018753953,58853,317316,326553
1631018753963,58841,317327,326616
1631018753973,58802,317252,326620
1631018753983,58747,317161,326620
1631018753993,58700,317162,326607
1631018754003,58631,317142,326588
1631018754013,58599,317137,326596
1631018754023,58530,317059,326581
1631018754033,58481,317043,326519
1631018754043,58430,317009,326538
1631018754053,58390,317029,326547
1631018754063,58345,317039,326480
1631018754073,58315,316995,326477
1631018754083,58265,316967,326448
1631018754093,58234,316992,326426
1631018754103,58210,316980,326447
1631018754113,58173,317011,326403
1631018754123,58140,317026,326405
1631018754133,58113,316984,326393
1631018754143,58091,317065,326358
1631018754153,58072,316965,326348
1631018754163,58083,316998,326331
1631018754173,58079,317011,326329
1631018754183,58060,316985,326289
1631018754193,58064,316996,326297
1631018754203,58072,316939,326277
1631018754213,58074,316960,326281
1631018754223,58066,317001,326274
1631018754233,58055,317028,326238
1631018754243,58054,317024,326227
1631018754253,58044,317013,326208
1631018754263,58057,317032,326195
1631018754273,58036,317013,326185
1631018754283,58047,317009,326207
1631018754293,58066,317007,326167
1631018754303,58053,317029,326171
1631018754313,58062,317066,326142
1631018754323,58073,317079,326147
1631018754333,58062,317044,326132
1631018754343,58095,317055,326132
1631018754353,58106,317040,326143
1631018754363,58130,317067,326216
1631018754373,58152,317057,326156
1631018754383,58150,317025,326183
1631018754393,58175,317057,326153
1631018754403,58208,317053,326163
1631018754413,58214,317068,326153
1631018754423,58238,317056,326148
1631018754433,58261,317110,326176
1631018754443,58301,317019,326195
1631018754453,58325,317002,326182
1631018754463,58324,317064,326177
1631018754473,58334,317087,326154
1631018754483,58367,317128,326154
1631018754493,58382,317081,326175
1631018754503,58406,317116,326158
1631018754513,58424,317160,326190
1631018754523,58449,317161,326206
1631018754533,58457,317260,326172
1631018754543,58487,317212,326188
1631018754553,58499,317254,326182
1631018754563,58520,317299,326201
1631018754573,58557,317290,326182
1631018754583,58608,317279,326169
1631018754593,58657,317254,326193
1631018754603,58671,317251,326249
1631018754613,58732,317316,326260
1631018754623,58763,317306,326278
1631018754633,58819,317257,326416
1631018754643,58855,317232,326411
1631018754653,58860,317192,326430
1631018754663,58876,317165,326474
1631018754673,58863,317099,326502
1631018754683,58832,317059,326547
1631018754693,58783,317025,326539
1631018754703,58730,316979,326512
1631018754713,58681,316993,326517
1631018754723,58622,316940,326508
1631018754733,58558,316913,326461
1631018754743,58506,316920,326476
1631018754753,58451,316862,326426
1631018754763,58432,316844,326455
1631018754773,58384,316858,326461
1631018754783,58363,316802,326424
1631018754793,58321,316779,326391
1631018754803,58290,316797,326423
1631018754813,58274,316777,326424
1631018754823,58250,316762,326414
1631018754833,58225,316759,326428
1631018754843,58207,316721,326417
1631018754853,58177,316766,326440
1631018754863,58172,316716,326428
1631018754873,58173,316664,326445
1631018754883,58151,316707,326448
1631018754893,58145,316710,326437
1631018754903,58143,316701,326469
1631018754913,58150,316754,326452
1631018754923,58157,316682,326448
1631018754933,58157,316694,326425
1631018754943,58136,316764,326496
1631018754953,58142,316757,326398
1631018754963,58141,316784,326405
1631018754973,58150,316751,326457
1631018754983,58152,316738,326433
1631018754993,58149,316787,326404
1631018755003,58155,316743,326419
1631018755013,58177,316745,326465
1631018755023,58182,316755,326441
1631018755033,58186,316721,326445
1631018755043,58203,316729,326494
1631018755053,58217,316770,326476
1631018755063,58247,316728,326478
1631018755073,58272,316715,326499
1631018755083,58294,316761,326532
1631018755093,58288,316777,326501
1631018755103,58320,316846,326537
1631018755113,58344,316784,326513
1631018755123,58362,316782,326517
1631018755133,58382,316800,326521
1631018755143,58406,316784,326537
1631018755153,58434,316796,326537
1631018755163,58439,316835,326570
1631018755173,58458,316847,326570
1631018755183,58480,316803,326589
1631018755193,58506,316854,326586
1631018755203,58539,316868,326622
1631018755213,58563,316913,326609
1631018755223,58591,316895,326649
1631018755233,58622,316910,326636
1631018755243,58647,316881,326649
1631018755253,58685,316934,326668
1631018755263,58721,316919,326642
1631018755273,58741,316952,326670
1631018755283,58776,316932,326685
1631018755293,58787,316955,326732
1631018755303,58822,316963,326737
1631018755313,58860,316945,326700
1631018755323,58880,316999,326745
1631018755333,58911,316973,326716
1631018755343,58961,316949,326791
1631018755353,58986,316974,326841
1631018755363,58999,316942,326870
1631018755373,59004,316919,326879
1631018755383,58983,316928,326929
1631018755393,58958,316887,326941
1631018755403,58937,316821,326965
1631018755413,58896,316822,326937
1631018755423,58827,316782,326953
1631018755433,58792,316734,326987
1631018755443,58771,316708,326975
1631018755453,58739,316704,326972
1631018755463,58699,316660,326973
1631018755473,58654,316723,326965
1631018755483,58611,316701,326950
1631018755493,58588,316751,326921
1631018755503,58583,316652,326929
1631018755513,58563,316690,326978
1631018755523,58541,316701,326962
1631018755533,58530,316669,326955
1631018755543,58523,316680,326933
1631018755553,58501,316637,326942
1631018755563,58511,316661,326901
1631018755573,58508,316629,326957
1631018755583,58502,316606,326919
1631018755593,58510,316654,326939
1631018755603,58513,316664,326942
1631018755613,58517,316625,326920
1631018755623,58521,316672,326901
1631018755633,58527,316638,326916
1631018755643,58543,316613,326917
1631018755653,58543,316629,326934
1631018755663,58534,316662,326944
1631018755673,58542,316639,326951
1631018755683,58550,316638,326948
1631018755693,58550,316611,326941
1631018755703,58555,316613,326976
1631018755713,58584,316624,326920
1631018755723,58584,316638,326919
1631018755733,58598,316618,326936
1631018755743,58601,316621,326902
1631018755753,58618,316644,326910
1631018755763,58627,316651,326916
1631018755773,58619,316680,326925
1631018755783,58652,316694,326956
1631018755793,58661,316673,326925
1631018755803,58676,316718,326957
1631018755813,58695,316696,326931
1631018755823,58713,316731,326969
1631018755833,58739,316739,326965
1631018755843,58761,316706,326962
1631018755853,58784,316763,327033
1631018755863,58806,316745,327001
1631018755873,58830,316783,326978
1631018755883,58870,316770,327001
1631018755893,58887,316814,327024
1631018755903,58910,316802,327015
1631018755913,58938,316838,326996
1631018755923,58951,316820,327018
1631018755933,58966,316852,327040
1631018755943,59003,316819,327014
1631018755953,59016,316872,327008
1631018755963,59048,316887,327000
1631018755973,59063,316908,326999
1631018755983,59085,316910,327015
1631018755993,59113,316906,327032
1631018756003,59136,316931,327041
1631018756013,59167,316972,327025
1631018756023,59204,316969,327059
1631018756033,59249,316958,327099
1631018756043,59288,316972,327114
1631018756053,59325,316943,327172
1631018756063,59334,316961,327205
1631018756073,59331,316931,327243
1631018756083,59331,316891,327263
1631018756093,59300,316867,327275
1631018756103,59271,316847,327246
1631018756113,59232,316811,327283
1631018756123,59180,316776,327297
1631018756133,59138,316735,327283
1631018756143,59083,316765,327249
1631018756153,59050,316762,327293
1631018756163,59006,316723,327248
1631018756173,58973,316677,327247
1631018756183,58938,316704,327252
1631018756193,58904,316670,327241
1631018756203,58871,316681,327256
1631018756213,58834,316675,327216
1631018756223,58833,316654,327256
1631018756233,58807,316644,327224
1631018756243,58765,316673,327243
1631018756253,58752,316596,327187
1631018756263,58714,316623,327172
1631018756273,58704,316652,327159
1631018756283,58703,316701,327182
1631018756293,58690,316626,327143
1631018756303,58691,316655,327139
1631018756313,58684,316634,327125
1631018756323,58670,316642,327108
1631018756333,58671,316634,327092
1631018756343,58675,316641,327076
1631018756353,58660,316641,327068
1631018756363,58660,316630,327051
1631018756373,58674,316626,327043
1631018756383,58663,316634,327020
1631018756393,58639,316614,327020
1631018756403,58632,316567,326978
1631018756413,58644,316631,326971
1631018756423,58647,316593,326948
1631018756433,58638,316540,326964
1631018756443,58647,316640,326912
1631018756453,58658,316654,326953
1631018756463,58658,316619,326897
1631018756473,58669,316651,326880
1631018756483,58680,316567,326867
1631018756493,58691,316629,326871
1631018756503,58706,316620,326902
1631018756513,58723,316625,326882
1631018756523,58756,316667,326859
1631018756533,58781,316649,326878
1631018756543,58783,316649,326851
1631018756553,58820,316693,326894
1631018756563,58831,316711,326874
1631018756573,58861,316678,326892
1631018756583,58881,316674,326902
1631018756593,58903,316747,326900
1631018756603,58928,316682,326886
1631018756613,58958,316730,326872
1631018756623,58975,316696,326885
1631018756633,58996,316758,326867
1631018756643,59014,316765,326927
1631018756653,59036,316767,326942
1631018756663,59057,316772,326938
1631018756673,59088,316793,326912
1631018756683,59135,316792,326979
1631018756693,59139,316840,326964
1631018756703,59183,316845,326977
1631018756713,59219,316840,326973
1631018756723,59233,316879,327002
1631018756733,59284,316902,327031
1631018756743,59317,316802,327050
1631018756753,59343,316888,327074
1631018756763,59382,316868,327122
1631018756773,59412,316882,327149
1631018756783,59424,316849,327232
1631018756793,59427,316851,327277
1631018756803,59429,316760,327274
1631018756813,59391,316741,327319
1631018756823,59360,316710,327348
1631018756833,59316,316691,327341
1631018756843,59267,316681,327332
1631018756853,59222,316638,327317
1631018756863,59180,316615,327339
1631018756873,59129,316582,327313
1631018756883,59090,316564,327313
1631018756893,59053,316513,327290
1631018756903,58990,316549,327283
1631018756913,58961,316484,327299
1631018756923,58931,316556,327273
1631018756933,58877,316513,327264
1631018756943,58850,316493,327257
1631018756953,58809,316417,327290
1631018756963,58772,316408,327226
1631018756973,58749,316410,327269
1631018756983,58710,316404,327219
1631018756993,58691,316367,327193
1631018757003,58673,316380,327189
1631018757013,58664,316376,327169
1631018757023,58653,316371,327138
1631018757033,58642,316415,327127
1631018757043,58626,316395,327080
1631018757053,58625,316411,327124
1631018757063,58616,316387,327072
1631018757073,58599,316399,327126
1631018757083,58610,316379,327101
1631018757093,58609,316383,327054
1631018757103,58611,316433,327059
1631018757113,58605,316395,327056
1631018757123,58601,316376,327041
1631018757133,58599,316447,327028
1631018757143,58592,316448,327035
1631018757153,58603,316437,327033
1631018757163,58603,316496,327023
1631018757173,58629,316455,327054
1631018757183,58632,316482,327044
1631018757193,58645,316565,327054
1631018757203,58654,316562,327107
1631018757213,58669,316611,327063
1631018757223,58670,316627,327084
1631018757233,58702,316635,327092
1631018757243,58716,316695,327151
1631018757253,58750,316717,327118
1631018757263,58742,316771,327176
1631018757273,58767,316807,327130
1631018757283,58784,316852,327179
1631018757293,58811,316835,327184
1631018757303,58828,316953,327179
1631018757313,58861,317014,327265
1631018757323,58891,317085,327302
1631018757333,58924,317170,327326
1631018757343,58964,317262,327379
1631018757353,58989,317315,327393
1631018757363,59009,317383,327405
1631018757373,59030,317502,327385
1631018757383,59051,317514,327396
1631018757393,59068,317565,327365
1631018757403,59088,317642,327347
1631018757413,59093,317710,327364
1631018757423,59107,317772,327331
1631018757433,59125,317820,327334
1631018757443,59149,317890,327327
1631018757453,59189,317881,327315
1631018757463,59220,317952,327356
1631018757473,59261,318020,327363
1631018757483,59300,318065,327446
1631018757493,59344,318122,327378
1631018757503,59393,318167,327436
1631018757513,59426,318231,327413
1631018757523,59463,318225,327481
1631018757533,59522,318298,327500
1631018757543,59554,318278,327531
1631018757553,59601,318295,327565
1631018757563,59662,318333,327665
1631018757573,59725,318316,327715
1631018757583,59752,318320,327807
1631018757593,59805,318373,327905
1631018757603,59853,318276,327974
1631018757613,59871,318240,328080
1631018757623,59888,318231,328161
1631018757633,59906,318165,328251
1631018757643,59874,318102,328343
1631018757653,59872,318107,328400
1631018757663,59859,318045,328437
1631018757673,59815,318064,328510
1631018757683,59789,317999,328503
1631018757693,59749,317960,328566
1631018757703,59710,317987,328590
1631018757713,59688,317949,328646
1631018757723,59652,317977,328667
1631018757733,59620,317949,328678
1631018757743,59587,317920,328702
1631018757753,59543,317950,328695
1631018757763,59512,317917,328724
1631018757773,59484,317858,328695
1631018757783,59440,317865,328735
1631018757793,59424,317812,328700
1631018757803,59398,317830,328715
1631018757813,59394,317763,328723
1631018757823,59371,317752,328759
1631018757833,59390,317774,328796
1631018757843,59380,317725,328757
1631018757853,59395,317705,328809
1631018757863,59410,317680,328826
1631018757873,59400,317665,328874
1631018757883,59422,317646,328939
1631018757893,59424,317646,328952
1631018757903,59438,317564,328944
1631018757913,59449,317618,329001
1631018757923,59468,317567,329044
1631018757933,59456,317568,329128
1631018757943,59484,317519,329150
1631018757953,59485,317478,329182
1631018757963,59498,317504,329250
1631018757973,59515,317501,329246
1631018757983,59538,317493,329295
1631018757993,59524,317500,329261
1631018758003,59513,317480,329299
1631018758013,59531,317514,329261
1631018758023,59513,317515,329264
1631018758033,59545,317494,329255
1631018758043,59528,317516,329219
1631018758053,59501,317552,329194
1631018758063,59493,317542,329202
1631018758073,59475,317590,329068
1631018758083,59437,317631,329053
1631018758093,59423,317671,328940
1631018758103,59442,317623,328968
1631018758113,59457,317662,328918
1631018758123,59429,317692,328842
1631018758133,59411,317753,328722
1631018758143,59414,317691,328707
1631018758153,59414,317722,328668
1631018758163,59409,317739,328623
1631018758173,59410,317743,328533
1631018758183,59411,317733,328456
1631018758193,59425,317736,328433
1631018758203,59423,317691,328368
1631018758213,59425,317776,328353
1631018758223,59456,317720,328306
1631018758233,59482,317711,328232
1631018758243,59501,317683,328251
1631018758253,59511,317707,328217
1631018758263,59529,317702,328192
1631018758273,59559,317706,328137
1631018758283,59586,317649,328158
1631018758293,59613,317666,328151
1631018758303,59627,317675,328155
1631018758313,59689,317717,328160
1631018758323,59711,317749,328156
1631018758333,59731,317765,328210
1631018758343,59776,317734,328230
1631018758353,59802,317815,328268
1631018758363,59828,317855,328259
1631018758373,59881,317875,328297
1631018758383,59916,317840,328313
1631018758393,59959,317931,328384
1631018758403,60003,317955,328413
1631018758413,60028,317999,328498
1631018758423,60059,318056,328513
1631018758433,60101,318120,328618
1631018758443,60144,318128,328571
1631018758453,60180,318136,328618
1631018758463,60230,318165,328666
1631018758473,60284,318202,328685
1631018758483,60290,318197,328726
1631018758493,60349,318241,328776
1631018758503,60372,318185,328867
1631018758513,60382,318206,328865
1631018758523,60388,318130,328865
1631018758533,60379,318119,328901
1631018758543,60346,318051,328908
1631018758553,60323,317979,328887
1631018758563,60262,317963,328848
1631018758573,60202,317884,328826
1631018758583,60149,317827,328866
1631018758593,60093,317837,328823
1631018758603,60054,317810,328777
1631018758613,60003,317738,328737
1631018758623,59956,317736,328738
1631018758633,59911,317724,328683
1631018758643,59845,317726,328677
1631018758653,59808,317673,328632
1631018758663,59797,317670,328591
1631018758673,59743,317643,328625
1631018758683,59711,317644,328617
1631018758693,59676,317665,328573
1631018758703,59668,317598,328557
1631018758713,59626,317626,328575
1631018758723,59608,317648,328506
1631018758733,59598,317626,328551
1631018758743,59580,317674,328547
1631018758753,59567,317647,328543
1631018758763,59557,317699,328551
1631018758773,59559,317665,328546
1631018758783,59554,317701,328542
1631018758793,59546,317685,328570
1631018758803,59557,317722,328566
1631018758813,59552,317758,328586
1631018758823,59548,317770,328627
1631018758833,59549,317829,328614
1631018758843,59549,317824,328630
1631018758853,59552,317828,328650
1631018758863,59564,317852,328649
1631018758873,59555,317880,328606
1631018758883,59577,317887,328632
1631018758893,59562,317889,328625
1631018758903,59571,317864,328654
1631018758913,59573,317819,328646
1631018758923,59585,317869,328623
1631018758933,59598,317887,328630
1631018758943,59603,317880,328633
1631018758953,59632,317859,328619
1631018758963,59654,317873,328628
1631018758973,59652,317828,328621
1631018758983,59666,317849,328574
1631018758993,59692,317817,328566
1631018759003,59678,317832,328573
1631018759013,59706,317854,328577
1631018759023,59722,317836,328538
1631018759033,59722,317879,328516
1631018759043,59752,317858,328549
1631018759053,59749,317852,328527
1631018759063,59774,317905,328539
1631018759073,59798,317878,328527
1631018759083,59814,317968,328558
1631018759093,59827,317877,328495
1631018759103,59870,317922,328515
1631018759113,59876,317948,328524
1631018759123,59912,317959,328549
1631018759133,59938,318009,328559
1631018759143,59957,317981,328533
1631018759153,59960,318013,328558
1631018759163,60003,318067,328578
1631018759173,60033,318066,328583
1631018759183,60047,318060,328617
1631018759193,60101,318065,328607
1631018759203,60110,318092,328592
1631018759213,60120,318132,328624
1631018759223,60143,318131,328582
1631018759233,60157,318142,328559
1631018759243,60187,318161,328561
1631018759253,60208,318159,328613
1631018759263,60235,318221,328540
1631018759273,60269,318173,328567
1631018759283,60286,318248,328583
1631018759293,60296,318183,328560
1631018759303,60334,318230,328576
1631018759313,60372,318212,328533
1631018759323,60401,318234,328578
1631018759333,60422,318235,328597
1631018759343,60454,318266,328557
1631018759353,60486,318293,328568
1631018759363,60528,318334,328585
1631018759373,60560,318295,328638
1631018759383,60576,318288,328666
1631018759393,60601,318232,328731
1631018759403,60613,318257,328768
1631018759413,60605,318239,328796
1631018759423,60595,318200,328813
1631018759433,60590,318158,328809
1631018759443,60557,318058,328796
1631018759453,60491,318170,328814
1631018759463,60456,318106,328818
1631018759473,60426,318061,328820
1631018759483,60373,318082,328825
1631018759493,60343,318095,328813
1631018759503,60310,318087,328825
1631018759513,60273,318096,328783
1631018759523,60252,318044,328757
1631018759533,60228,318031,328795
1631018759543,60188,318042,328764
1631018759553,60162,318029,328770
1631018759563,60149,318066,328750
1631018759573,60125,318051,328735
1631018759583,60107,318030,328703
1631018759593,60103,318098,328735
1631018759603,60106,318101,328707
1631018759613,60099,318079,328726
1631018759623,60097,318095,328697
1631018759633,60099,318086,328690
1631018759643,60091,318070,328746
1631018759653,60096,318074,328664
1631018759663,60086,318096,328717
1631018759673,60086,318089,328696
1631018759683,60085,318058,328654
1631018759693,60078,318078,328680
1631018759703,60066,318065,328666
1631018759713,60069,318060,328642
1631018759723,60063,318082,328656
1631018759733,60066,318103,328635
1631018759743,60066,318061,328645
1631018759753,60073,318043,328645
1631018759763,60088,318076,328605
1631018759773,60086,318133,328646
1631018759783,60100,318069,328638
1631018759793,60100,318066,328612
1631018759803,60115,318126,328614
1631018759813,60125,318088,328628
1631018759823,60136,318130,328611
1631018759833,60141,318140,328599
1631018759843,60162,318146,328582
1631018759853,60166,318201,328634
1631018759863,60180,318166,328625
1631018759873,60190,318158,328633
1631018759883,60202,318162,328614
1631018759893,60225,318204,328606
1631018759903,60249,318172,328608
1631018759913,60259,318215,328581
1631018759923,60284,318248,328587
1631018759933,60296,318215,328618
1631018759943,60295,318222,328591
1631018759953,60316,318266,328601
1631018759963,60329,318248,328593
1631018759973,60357,318268,328602
1631018759983,60374,318221,328611
1631018759993,60400,318284,328610
1631018760003,60410,318264,328633
1631018760013,60425,318291,328592
1631018760023,60437,318313,328638
1631018760033,60465,318324,328597
1631018760043,60481,318319,328592
1631018760053,60499,318331,328605
1631018760063,60519,318336,328607
1631018760073,60545,318382,328617
1631018760083,60566,318341,328580
1631018760093,60584,318381,328598
1631018760103,60631,318326,328651
1631018760113,60646,318394,328605
1631018760123,60675,318401,328602
1631018760133,60685,318448,328606
1631018760143,60718,318406,328592
1631018760153,60752,318463,328613
1631018760163,60781,318454,328602
1631018760173,60792,318447,328674
1631018760183,60837,318426,328681
1631018760193,60843,318429,328718
1631018760203,60849,318422,328744
1631018760213,60848,318372,328763
1631018760223,60839,318318,328841
1631018760233,60806,318245,328765
1631018760243,60771,318241,328830
1631018760253,60744,318171,328839
1631018760263,60676,318203,328809
1631018760273,60647,318192,328806
1631018760283,60601,318146,328796
1631018760293,60550,318149,328764
1631018760303,60517,318150,328771
1631018760313,60481,318088,328734
1631018760323,60450,318083,328698
1631018760333,60410,318090,328703
1631018760343,60388,318057,328677
1631018760353,60364,318057,328709
1631018760363,60333,318069,328673
1631018760373,60312,318034,328671
1631018760383,60289,317987,328631
1631018760393,60275,318039,328630
1631018760403,60258,318038,328603
1631018760413,60234,318030,328613
1631018760423,60214,318036,328622
1631018760433,60226,317995,328591
1631018760443,60211,318039,328590
1631018760453,60229,318060,328584
1631018760463,60205,318023,328578
1631018760473,60212,318050,328543
1631018760483,60214,318047,328575
1631018760493,60207,318033,328531
1631018760503,60189,318018,328544
1631018760513,60192,318000,328539
1631018760523,60194,317992,328552
1631018760533,60190,318060,328590
1631018760543,60186,318018,328593
1631018760553,60192,318008,328522
1631018760563,60183,318014,328533
1631018760573,60203,318026,328551
1631018760583,60190,318012,328562
1631018760593,60194,318021,328515
1631018760603,60215,318047,328491
1631018760613,60211,318024,328555
1631018760623,60209,318019,328505
1631018760633,60217,318001,328470
1631018760643,60236,318067,328490
1631018760653,60251,318018,328521
1631018760663,60249,318075,328529
1631018760673,60271,318077,328543
1631018760683,60292,318150,328561
1631018760693,60299,318163,328554
1631018760703,60310,318140,328573
1631018760713,60327,318154,328572
1631018760723,60333,318156,328543
1631018760733,60366,318180,328579
1631018760743,60366,318180,328580
1631018760753,60398,318214,328567
1631018760763,60407,318217,328551
1631018760773,60414,318174,328525
1631018760783,60436,318191,328546
1631018760793,60453,318162,328477
1631018760803,60469,318229,328520
1631018760813,60475,318160,328457
1631018760823,60487,318240,328446
1631018760833,60497,318209,328446
1631018760843,60523,318213,328461
1631018760853,60543,318232,328438
1631018760863,60552,318254,328469
1631018760873,60561,318260,328452
1631018760883,60594,318249,328438
1631018760893,60627,318219,328426
1631018760903,60649,318274,328425
1631018760913,60667,318263,328447
1631018760923,60698,318284,328458
1631018760933,60720,318272,328505
1631018760943,60748,318259,328490
1631018760953,60752,318228,328576
1631018760963,60745,318215,328536
1631018760973,60732,318170,328590
1631018760983,60686,318123,328628
1631018760993,60645,318086,328586
1631018761003,60600,318021,328616
1631018761013,60539,317981,328591
1631018761023,60477,317940,328585
1631018761033,60412,317887,328583
1631018761043,60351,317878,328564
1631018761053,60302,317864,328500
1631018761063,60266,317865,328521
1631018761073,60211,317793,328438
1631018761083,60159,317828,328463
1631018761093,60128,317787,328436
1631018761103,60085,317733,328448
1631018761113,60029,317799,328443
1631018761123,60008,317754,328407
1631018761133,59964,317752,328374
1631018761143,59941,317711,328373
1631018761153,59889,317696,328330
1631018761163,59852,317697,328332
1631018761173,59834,317696,328344
1631018761183,59815,317702,328289
1631018761193,59801,317704,328287
1631018761203,59790,317627,328293
1631018761213,59768,317621,328267
1631018761223,59765,317690,328261
1631018761233,59752,317653,328253
1631018761243,59749,317625,328243
1631018761253,59735,317626,328276
1631018761263,59735,317635,328263
1631018761273,59722,317587,328250
1631018761283,59708,317613,328271
1631018761293,59678,317668,328228
1631018761303,59684,317600,328257
1631018761313,59675,317618,328215
1631018761323,59657,317645,328208
1631018761333,59649,317624,328261
1631018761343,59641,317602,328222
1631018761353,59640,317622,328186
1631018761363,59629,317636,328195
1631018761373,59627,317589,328177
1631018761383,59660,317595,328171
1631018761393,59652,317594,328117
1631018761403,59668,317585,328148
1631018761413,59659,317563,328163
1631018761423,59666,317563,328099
1631018761433,59675,317502,328109
1631018761443,59682,317509,328088
1631018761453,59698,317459,328092
1631018761463,59691,317427,328057
1631018761473,59701,317411,328021
1631018761483,59701,317399,327998
1631018761493,59707,317364,327987
1631018761503,59703,317363,327968
1631018761513,59706,317418,327943
1631018761523,59709,317421,327936
1631018761533,59717,317439,327927
1631018761543,59738,317374,327914
1631018761553,59741,317414,327911
1631018761563,59774,317376,327881
1631018761573,59756,317380,327847
1631018761583,59769,317357,327824
1631018761593,59791,317397,327801
1631018761603,59808,317376,327778
1631018761613,59809,317401,327770
1631018761623,59827,317397,327769
1631018761633,59853,317392,327780
1631018761643,59855,317411,327778
1631018761653,59870,317363,327785
1631018761663,59888,317397,327823
1631018761673,59906,317318,327809
1631018761683,59902,317303,327827
1631018761693,59885,317301,327888
1631018761703,59859,317209,327899
1631018761713,59819,317157,327874
1631018761723,59755,317104,327853
1631018761733,59724,317102,327807
1631018761743,59643,317005,327774
1631018761753,59566,317018,327799
1631018761763,59516,316940,327747
1631018761773,59458,316916,327712
1631018761783,59411,316889,327738
1631018761793,59365,316837,327723
1631018761803,59323,316829,327723
1631018761813,59286,316753,327726
1631018761823,59243,316753,327702
1631018761833,59212,316770,327702
1631018761843,59185,316694,327708
1631018761853,59150,316708,327675
1631018761863,59112,316650,327677
1631018761873,59072,316597,327696
1631018761883,59052,316623,327604
1631018761893,59021,316639,327607
1631018761903,58998,316628,327601
1631018761913,58965,316635,327594
1631018761923,58952,316583,327564
1631018761933,58927,316611,327570
1631018761943,58919,316631,327517
1631018761953,58907,316596,327531
1631018761963,58897,316597,327527
1631018761973,58874,316620,327488
1631018761983,58862,316523,327479
1631018761993,58858,316518,327480
1631018762003,58831,316558,327444
1631018762013,58817,316575,327439
1631018762023,58797,316585,327396
1631018762033,58799,316543,327421
1631018762043,58789,316549,327408
1631018762053,58777,316552,327364
1631018762063,58762,316552,327393
1631018762073,58772,316573,327373
1631018762083,58783,316587,327374
1631018762093,58778,316573,327366
1631018762103,58789,316559,327352
1631018762113,58799,316581,327335
1631018762123,58794,316566,327370
1631018762133,58798,316583,327318
1631018762143,58800,316586,327317
1631018762153,58810,316602,327338
1631018762163,58829,316606,327351
1631018762173,58839,316566,327315
1631018762183,58842,316592,327318
1631018762193,58867,316641,327322
1631018762203,58866,316630,327297
1631018762213,58870,316595,327283
1631018762223,58897,316688,327269
1631018762233,58906,316682,327289
1631018762243,58921,316669,327267
1631018762253,58935,316640,327295
1631018762263,58938,316665,327306
1631018762273,58962,316673,327245
1631018762283,58978,316661,327287
1631018762293,59008,316712,327242
1631018762303,59018,316698,327246
1631018762313,59029,316682,327270
1631018762323,59056,316709,327268
1631018762333,59080,316685,327271
1631018762343,59114,316690,327290
1631018762353,59142,316705,327314
1631018762363,59160,316670,327374
1631018762373,59161,316648,327380
1631018762383,59193,316648,327382
1631018762393,59185,316620,327447
1631018762403,59162,316565,327458
1631018762413,59149,316524,327487
1631018762423,59115,316443,327553
1631018762433,59062,316439,327525
1631018762443,59026,316382,327496
1631018762453,58960,316380,327552
1631018762463,58899,316359,327479
1631018762473,58859,316336,327470
1631018762483,58804,316291,327463
1631018762493,58760,316266,327448
1631018762503,58715,316314,327389
1631018762513,58675,316310,327358
1631018762523,58645,316300,327381
1631018762533,58615,316323,327352
1631018762543,58567,316319,327348
1631018762553,58547,316299,327291
1631018762563,58518,316324,327287
1631018762573,58499,316331,327285
1631018762583,58488,316289,327253
1631018762593,58484,316264,327248
1631018762603,58476,316303,327238
1631018762613,58463,316309,327210
1631018762623,58444,316328,327178
1631018762633,58409,316376,327084
1631018762643,58389,316459,327090
1631018762653,58387,316372,327069
1631018762663,58383,316335,327028
1631018762673,58383,316271,326987
1631018762683,58369,316292,326942
1631018762693,58364,316235,326881
1631018762703,58349,316296,326820
1631018762713,58328,316247,326795
1631018762723,58307,316318,326752
1631018762733,58286,316344,326687
1631018762743,58284,316384,326678
1631018762753,58282,316365,326689
1631018762763,58293,316388,326644
1631018762773,58302,316401,326621
1631018762783,58325,316418,326635
1631018762793,58343,316389,326647
1631018762803,58370,316390,326647
1631018762813,58387,316371,326673
1631018762823,58413,316434,326687
1631018762833,58441,316388,326680
1631018762843,58477,316398,326699
1631018762853,58489,316429,326703
1631018762863,58515,316352,326738
1631018762873,58529,316454,326702
1631018762883,58564,316420,326750
1631018762893,58571,316448,326721
1631018762903,58587,316413,326724
1631018762913,58606,316463,326742
1631018762923,58621,316408,326711
1631018762933,58633,316501,326727
1631018762943,58645,316530,326735
1631018762953,58671,316503,326757
1631018762963,58693,316514,326757
1631018762973,58725,316530,326756
1631018762983,58756,316545,326728
1631018762993,58775,316549,326751
1631018763003,58816,316565,326794
1631018763013,58847,316604,326770
1631018763023,58877,316566,326810
1631018763033,58902,316560,326787
1631018763043,58948,316558,326882
1631018763053,58971,316574,326919
1631018763063,59001,316562,326980
1631018763073,59010,316486,327035
1631018763083,58995,316482,327078
1631018763093,58996,316415,327099
1631018763103,58964,316405,327090
1631018763113,58923,316333,327124
1631018763123,58879,316285,327137
1631018763133,58821,316264,327134
1631018763143,58774,316248,327117
1631018763153,58736,316239,327126
1631018763163,58683,316229,327135
1631018763173,58650,316193,327155
1631018763183,58632,316195,327139
1631018763193,58596,316152,327160
1631018763203,58573,316133,327121
1631018763213,58544,316118,327168
1631018763223,58519,316049,327151
1631018763233,58492,316070,327150
1631018763243,58464,316062,327144
1631018763253,58439,316046,327157
1631018763263,58415,316059,327146
1631018763273,58394,316069,327083
1631018763283,58378,316026,327054
1631018763293,58369,316004,327073
1631018763303,58360,316073,327079
1631018763313,58359,316067,327107
1631018763323,58350,316037,327102
1631018763333,58368,316050,327082
1631018763343,58364,316030,327067
1631018763353,58358,316033,327067
1631018763363,58347,315980,327057
1631018763373,58351,315982,327064
1631018763383,58338,316018,327021
1631018763393,58348,316022,327024
1631018763403,58340,316003,327051
1631018763413,58341,316003,327017
1631018763423,58328,315946,327010
1631018763433,58334,316004,326996
1631018763443,58340,316012,327027
1631018763453,58355,315943,327024
1631018763463,58363,315967,326998
1631018763473,58374,316003,327021
1631018763483,58393,315991,326968
1631018763493,58399,316010,327008
1631018763503,58401,315996,327005
1631018763513,58427,316038,327024
1631018763523,58453,316014,327026
1631018763533,58461,316054,327018
1631018763543,58486,316019,326997
1631018763553,58493,316025,327021
1631018763563,58510,316030,327012
1631018763573,58523,316051,327033
1631018763583,58534,316053,326980
1631018763593,58563,316049,327016
1631018763603,58585,316067,327031
1631018763613,58607,316085,327027
1631018763623,58619,316044,327008
1631018763633,58633,316098,327054
1631018763643,58672,316082,327023
1631018763653,58675,316057,327079
1631018763663,58720,316068,327030
1631018763673,58740,316039,327046
1631018763683,58776,316091,327011
1631018763693,58796,316124,327048
1631018763703,58823,316138,327084
1631018763713,58835,316095,327097
1631018763723,58870,316122,327132
1631018763733,58904,316109,327155
1631018763743,58905,316058,327226
1631018763753,58904,316069,327238
1631018763763,58899,316046,327282
1631018763773,58868,316007,327253
1631018763783,58831,315959,327281
1631018763793,58785,315885,327318
1631018763803,58727,315922,327290
1631018763813,58702,315842,327281
1631018763823,58625,315853,327265
1631018763833,58585,315827,327258
1631018763843,58553,315849,327219
1631018763853,58495,315811,327225
1631018763863,58445,315767,327175
1631018763873,58414,315777,327173
1631018763883,58366,315780,327171
1631018763893,58329,315752,327175
1631018763903,58311,315731,327131
1631018763913,58279,315728,327084
1631018763923,58250,315739,327108
1631018763933,58220,315683,327088
1631018763943,58192,315676,327068
1631018763953,58169,315701,327010
1631018763963,58163,315735,327021
1631018763973,58146,315717,327006
1631018763983,58154,315727,326994
1631018763993,58133,315743,326974
1631018764003,58143,315688,326952
1631018764013,58139,315747,326953
1631018764023,58138,315736,326939
1631018764033,58150,315759,326943
1631018764043,58145,315744,326951
1631018764053,58133,315697,326943
1631018764063,58150,315726,326900
1631018764073,58148,315731,326940
1631018764083,58149,315719,326903
1631018764093,58162,315694,326929
1631018764103,58165,315705,326883
1631018764113,58169,315717,326861
1631018764123,58180,315748,326887
1631018764133,58206,315715,326847
1631018764143,58212,315735,326845
1631018764153,58213,315765,326903
1631018764163,58230,315731,326880
1631018764173,58229,315795,326893
1631018764183,58253,315763,326873
1631018764193,58254,315791,326877
1631018764203,58287,315783,326869
1631018764213,58303,315827,326871
1631018764223,58323,315806,326833
1631018764233,58330,315874,326854
1631018764243,58360,315839,326885
1631018764253,58371,315831,326872
1631018764263,58398,315848,326915
1631018764273,58413,315889,326868
1631018764283,58438,315877,326909
1631018764293,58474,315937,326867
1631018764303,58484,315912,326879
1631018764313,58513,315932,326881
1631018764323,58517,315929,326885
1631018764333,58556,315941,326881
1631018764343,58571,315978,326938
1631018764353,58603,316008,326920
1631018764363,58628,316025,326894
1631018764373,58677,316042,326920
1631018764383,58691,316064,326929
1631018764393,58721,316093,326913
1631018764403,58746,316099,326932
1631018764413,58773,316067,326953
1631018764423,58800,316074,326980
1631018764433,58823,316057,327042
1631018764443,58835,316018,327078
1631018764453,58845,316034,327099
1631018764463,58831,315996,327112
1631018764473,58816,315981,327156
1631018764483,58789,315908,327154
1631018764493,58762,315887,327171
1631018764503,58707,315914,327206
1631018764513,58674,315867,327179
1631018764523,58642,315889,327165
1631018764533,58599,315862,327158
1631018764543,58551,315814,327102
1631018764553,58541,315809,327137
1631018764563,58512,315784,327146
1631018764573,58481,315802,327075
1631018764583,58463,315789,327105
1631018764593,58457,315755,327104
1631018764603,58441,315731,327103
1631018764613,58427,315747,327061
1631018764623,58403,315719,327055
1631018764633,58377,315734,327042
1631018764643,58385,315698,327042
1631018764653,58371,315746,327039
1631018764663,58405,315743,327038
1631018764673,58401,315734,327012
1631018764683,58410,315759,327012
1631018764693,58393,315747,327035
1631018764703,58418,315698,327057
1631018764713,58428,315723,327026
1631018764723,58436,315720,327066
1631018764733,58453,315719,327039
1631018764743,58454,315733,327065
1631018764753,58459,315736,327017
1631018764763,58461,315776,327051
1631018764773,58477,315714,327065
1631018764783,58471,315756,327023
1631018764793,58473,315717,327082
1631018764803,58487,315758,326998
1631018764813,58509,315775,327059
1631018764823,58521,315759,327050
1631018764833,58525,315760,327043
1631018764843,58547,315807,327050
1631018764853,58565,315806,327049
1631018764863,58573,315816,327043
1631018764873,58591,315799,327062
1631018764883,58618,315822,327055
1631018764893,58629,315810,327037
1631018764903,58663,315820,327028
1631018764913,58676,315862,327019
1631018764923,58710,315818,327050
1631018764933,58722,315874,327050
1631018764943,58751,315878,327051
1631018764953,58786,315875,327078
1631018764963,58801,315936,327083
1631018764973,58826,315938,327123
1631018764983,58847,315967,327119
1631018764993,58873,315956,327121
1631018765003,58891,315969,327111
1631018765013,58923,315955,327103
1631018765023,58954,315937,327125
1631018765033,58976,316045,327099
1631018765043,59002,316030,327103
1631018765053,59028,316049,327102
1631018765063,59044,316083,327135
1631018765073,59060,316097,327100
1631018765083,59092,316119,327149
1631018765093,59134,316160,327144
1631018765103,59163,316141,327101
1631018765113,59189,316179,327160
1631018765123,59233,316138,327136
1631018765133,59285,316191,327194
1631018765143,59308,316169,327198
1631018765153,59325,316178,327258
1631018765163,59367,316185,327274
1631018765173,59369,316161,327340
1631018765183,59370,316116,327367
1631018765193,59375,316093,327408
1631018765203,59343,316038,327425
1631018765213,59309,316016,327406
1631018765223,59261,316010,327407
1631018765233,59228,315956,327437
1631018765243,59206,315926,327448
1631018765253,59168,315927,327436
1631018765263,59158,315931,327397
1631018765273,59115,315911,327376
1631018765283,59082,315928,327382
1631018765293,59084,315901,327371
1631018765303,59061,315907,327380
1631018765313,59043,315880,327400
1631018765323,59018,315936,327356
1631018765333,59004,315935,327335
1631018765343,58990,315904,327320
1631018765353,58987,315911,327301
1631018765363,58973,315930,327330
1631018765373,58965,315934,327306
1631018765383,58969,315927,327300
1631018765393,58970,315928,327315
1631018765403,58976,315949,327298
1631018765413,58976,315947,327284
1631018765423,58996,315933,327301
1631018765433,58999,315967,327296
1631018765443,59000,315947,327281
1631018765453,59007,315980,327280
1631018765463,59006,315969,327261
1631018765473,59010,315977,327272
1631018765483,59026,316027,327289
1631018765493,59023,316044,327242
1631018765503,59029,316013,327284
1631018765513,59041,316057,327223
1631018765523,59044,316067,327228
1631018765533,59037,316070,327232
1631018765543,59058,316088,327248
1631018765553,59069,316102,327263
1631018765563,59085,316084,327226
1631018765573,59096,316159,327212
1631018765583,59134,316100,327215
1631018765593,59153,316119,327213
1631018765603,59167,316133,327268
1631018765613,59181,316202,327188
1631018765623,59214,316128,327193
1631018765633,59230,316144,327189
1631018765643,59264,316204,327253
1631018765653,59277,316133,327203
1631018765663,59300,316162,327227
1631018765673,59313,316206,327215
1631018765683,59363,316186,327220
1631018765693,59370,316187,327205
1631018765703,59401,316271,327249
1631018765713,59418,316239,327190
1631018765723,59443,316237,327245
1631018765733,59471,316307,327254
1631018765743,59507,316355,327223
1631018765753,59526,316319,327223
1631018765763,59547,316358,327234
1631018765773,59573,316336,327305
1631018765783,59608,316419,327288
1631018765793,59621,316445,327296
1631018765803,59672,316398,327304
1631018765813,59689,316423,327296
1631018765823,59723,316449,327309
1631018765833,59757,316501,327322
1631018765843,59787,316547,327314
1631018765853,59812,316525,327316
1631018765863,59844,316535,327356
1631018765873,59879,316582,327330
1631018765883,59914,316582,327364
1631018765893,59954,316595,327455
1631018765903,60008,316603,327465
1631018765913,60031,316598,327479
1631018765923,60051,316567,327535
1631018765933,60076,316542,327571
1631018765943,60067,316486,327620
1631018765953,60047,316501,327646
1631018765963,60041,316450,327677
1631018765973,59988,316448,327678
1631018765983,59975,316453,327671
1631018765993,59925,316411,327668
1631018766003,59901,316429,327673
1631018766013,59851,316414,327681
1631018766023,59818,316423,327655
1631018766033,59794,316392,327639
1631018766043,59765,316427,327626
1631018766053,59749,316378,327623
1631018766063,59729,316391,327661
1631018766073,59730,316410,327667
1631018766083,59711,316389,327621
1631018766093,59690,316388,327610
1631018766103,59683,316390,327620
1631018766113,59681,316375,327631
1631018766123,59660,316347,327599
1631018766133,59640,316426,327591
1631018766143,59649,316345,327568
1631018766153,59649,316383,327609
1631018766163,59646,316384,327612
1631018766173,59661,316385,327548
1631018766183,59652,316373,327568
1631018766193,59665,316358,327588
1631018766203,59673,316378,327573
1631018766213,59669,316418,327594
1631018766223,59666,316406,327581
1631018766233,59670,316378,327573
1631018766243,59686,316386,327538
1631018766253,59701,316453,327584
1631018766263,59707,316464,327564
1631018766273,59701,316480,327596
1631018766283,59711,316430,327597
1631018766293,59734,316445,327552
1631018766303,59748,316458,327573
1631018766313,59745,316485,327562
1631018766323,59772,316460,327555
1631018766333,59776,316496,327531
1631018766343,59792,316519,327569
1631018766353,59800,316513,327562
1631018766363,59813,316541,327560
1631018766373,59839,316522,327574
1631018766383,59857,316548,327573
1631018766393,59869,316556,327560
1631018766403,59908,316594,327543
1631018766413,59917,316546,327570
1631018766423,59967,316602,327576
1631018766433,59982,316620,327566
1631018766443,59998,316627,327577
1631018766453,60016,316629,327584
1631018766463,60049,316639,327551
1631018766473,60064,316659,327624
1631018766483,60110,316670,327595
1631018766493,60127,316692,327613
1631018766503,60143,316676,327640
1631018766513,60176,316744,327627
1631018766523,60190,316758,327617
1631018766533,60217,316748,327657
1631018766543,60242,316800,327634
1631018766553,60270,316820,327667
1631018766563,60290,316857,327678
1631018766573,60309,316856,327648
1631018766583,60359,316807,327644
1631018766593,60368,316848,327715
1631018766603,60416,316861,327658
1631018766613,60437,316877,327720
1631018766623,60486,316929,327705
1631018766633,60498,316917,327697
1631018766643,60539,316948,327748
1631018766653,60555,316993,327767
1631018766663,60603,317025,327765
1631018766673,60630,316980,327848
1631018766683,60658,316962,327846
1631018766693,60677,317037,327903
1631018766703,60689,316956,327975
1631018766713,60681,316901,327997
1631018766723,60687,316887,328014
1631018766733,60645,316839,328031
1631018766743,60614,316843,328033
1631018766753,60571,316847,328044
1631018766763,60529,316780,328035
1631018766773,60502,316750,328035
1631018766783,60457,316799,328015
1631018766793,60428,316760,328011
1631018766803,60398,316753,328000
1631018766813,60357,316741,328004
1631018766823,60335,316720,327999
1631018766833,60320,316753,328006
1631018766843,60294,316736,327967
1631018766853,60261,316720,327978
1631018766863,60249,316670,327961
1631018766873,60225,316675,327973
1631018766883,60224,316725,327925
1631018766893,60196,316669,327919
1631018766903,60199,316683,327916
1631018766913,60187,316710,327915
1631018766923,60179,316699,327935
1631018766933,60176,316722,327902
1631018766943,60174,316710,327879
1631018766953,60180,316719,327897
1631018766963,60174,316727,327879
1631018766973,60172,316726,327900
1631018766983,60165,316730,327900
1631018766993,60162,316702,327878
1631018767003,60167,316688,327923
1631018767013,60160,316710,327885
1631018767023,60175,316747,327873
1631018767033,60162,316731,327866
1631018767043,60172,316755,327845
1631018767053,60197,316781,327844
1631018767063,60204,316769,327868
1631018767073,60207,316799,327832
1631018767083,60213,316789,327845
1631018767093,60213,316818,327851
1631018767103,60222,316778,327854
1631018767113,60237,316772,327831
1631018767123,60241,316828,327830
1631018767133,60250,316819,327827
1631018767143,60260,316873,327853
1631018767153,60274,316848,327822
1631018767163,60289,316839,327848
1631018767173,60304,316866,327824
1631018767183,60315,316918,327848
1631018767193,60340,316887,327839
1631018767203,60376,316857,327824
1631018767213,60404,316913,327864
1631018767223,60405,316946,327850
1631018767233,60445,316967,327866
1631018767243,60451,316981,327848
1631018767253,60475,316981,327818
1631018767263,60483,317033,327851
1631018767273,60497,317021,327866
1631018767283,60523,317006,327846
1631018767293,60544,317013,327852
1631018767303,60558,317050,327867
1631018767313,60568,317021,327823
1631018767323,60583,317071,327860
1631018767333,60617,317110,327833
1631018767343,60639,317143,327833
1631018767353,60648,317129,327843
1631018767363,60668,317075,327856
1631018767373,60707,317127,327855
1631018767383,60717,317178,327847
1631018767393,60757,317141,327850
1631018767403,60777,317166,327856
1631018767413,60791,317203,327825
1631018767423,60829,317214,327871
1631018767433,60854,317235,327897
1631018767443,60880,317292,327897
1631018767453,60908,317238,327977
1631018767463,60933,317255,327999
1631018767473,60951,317204,328058
1631018767483,60949,317176,328076
1631018767493,60919,317108,328111
1631018767503,60915,317126,328120
1631018767513,60868,317093,328127
1631018767523,60832,317088,328121
1631018767533,60800,317039,328099
1631018767543,60728,317036,328094
1631018767553,60703,317080,328074
1631018767563,60669,317050,328072
1631018767573,60628,317007,328031
1631018767583,60594,317013,328029
1631018767593,60572,317025,328025
1631018767603,60532,317001,328020
1631018767613,60501,316984,328018
1631018767623,60482,316978,327992
1631018767633,60450,316977,327997
1631018767643,60430,316993,327989
1631018767653,60404,316968,327955
1631018767663,60384,317006,327959
1631018767673,60369,316933,327952
1631018767683,60370,316976,327959
1631018767693,60363,316958,327926
1631018767703,60349,317019,327952
1631018767713,60364,316949,327957
1631018767723,60364,317026,327973
1631018767733,60341,317011,327951
1631018767743,60337,317020,327918
1631018767753,60333,316980,327936
1631018767763,60329,316980,327976
1631018767773,60311,317000,327933
1631018767783,60318,317004,327945
1631018767793,60309,316931,327960
1631018767803,60294,316992,327947
1631018767813,60289,316979,327922
1631018767823,60283,316996,327924
1631018767833,60293,316973,327900
1631018767843,60290,317012,327902
1631018767853,60273,317008,327903
1631018767863,60301,316988,327910
1631018767873,60304,316994,327904
1631018767883,60307,316993,327914
1631018767893,60309,317007,327879
1631018767903,60311,317074,327866
1631018767913,60308,317039,327897
1631018767923,60324,317062,327894
1631018767933,60335,317025,327886
1631018767943,60328,317082,327890
1631018767953,60344,317049,327928
1631018767963,60351,317079,327923
1631018767973,60363,317117,327917
1631018767983,60371,317063,327916
1631018767993,60385,317138,327918
1631018768003,60413,317132,327933
1631018768013,60422,317144,327921
1631018768023,60436,317156,327945
1631018768033,60443,317143,327936
1631018768043,60462,317168,327960
1631018768053,60465,317186,327952
1631018768063,60496,317209,327939
1631018768073,60495,317220,327964
1631018768083,60514,317267,327983
1631018768093,60527,317218,327943
1631018768103,60547,317226,327972
1631018768113,60570,317228,327957
1631018768123,60582,317272,327933
1631018768133,60595,317275,327962
1631018768143,60614,317295,327973
1631018768153,60634,317308,327981
1631018768163,60660,317335,327993
1631018768173,60675,317328,328023
1631018768183,60699,317359,327986
1631018768193,60737,317364,328046
1631018768203,60769,317303,328112
1631018768213,60754,317302,328163
1631018768223,60777,317275,328189
1631018768233,60773,317224,328228
1631018768243,60741,317174,328250
1631018768253,60706,317151,328308
1631018768263,60675,317109,328311
1631018768273,60628,317110,328297
1631018768283,60573,317082,328286
1631018768293,60506,317050,328304
1631018768303,60467,317054,328265
1631018768313,60401,317024,328254
1631018768323,60359,317009,328229
1631018768333,60328,317010,328244
1631018768343,60284,316988,328219
1631018768353,60252,316977,328249
1631018768363,60203,316967,328214
1631018768373,60187,316950,328161
1631018768383,60148,316952,328180
1631018768393,60123,316974,328136
1631018768403,60081,316950,328169
1631018768413,60061,316973,328094
1631018768423,60036,316944,328097
1631018768433,60023,316965,328110
1631018768443,59990,316950,328099
1631018768453,59978,316905,328074
1631018768463,59953,316905,328085
1631018768473,59953,316916,328073
1631018768483,59929,316904,328074
1631018768493,59911,316942,328019
1631018768503,59909,316908,328027
1631018768513,59872,316911,328034
1631018768523,59859,316924,328014
1631018768533,59866,316858,327998
1631018768543,59821,316901,328005
1631018768553,59823,316915,327989
1631018768563,59810,316909,327990
1631018768573,59791,316847,328001
1631018768583,59786,316876,327991
1631018768593,59776,316911,327935
1631018768603,59775,316878,327937
1631018768613,59771,316898,327953
1631018768623,59744,316920,327922
1631018768633,59742,316908,327929
1631018768643,59756,316892,327907
1631018768653,59756,316928,327921
1631018768663,59763,316883,327949
1631018768673,59753,316896,327917
1631018768683,59765,316938,327901
1631018768693,59751,316967,327925
1631018768703,59776,316951,327899
1631018768713,59778,316935,327957
1631018768723,59794,316965,327908
1631018768733,59772,316993,327906
1631018768743,59805,316976,327888
1631018768753,59813,316990,327882
1631018768763,59800,317051,327858
1631018768773,59798,316992,327898
1631018768783,59811,317000,327902
1631018768793,59811,317054,327877
1631018768803,59833,317046,327883
1631018768813,59836,317093,327895
1631018768823,59861,317065,327891
1631018768833,59874,317071,327861
1631018768843,59884,317100,327853
1631018768853,59891,317083,327886
1631018768863,59892,317117,327881
1631018768873,59922,317149,327876
1631018768883,59941,317152,327879
1631018768893,59946,317192,327905
1631018768903,59966,317148,327912
1631018768913,59991,317194,327913
1631018768923,60001,317184,327921
1631018768933,60026,317193,327975
1631018768943,60036,317166,328016
1631018768953,60047,317158,328003
1631018768963,60040,317117,328069
1631018768973,60017,317080,328097
1631018768983,59986,317064,328118
1631018768993,59929,316978,328086
1631018769003,59856,316951,328100
1631018769013,59797,316889,328074
1631018769023,59721,316896,328065
1631018769033,59660,316846,328065
1631018769043,59575,316828,328026
1631018769053,59509,316845,327992
1631018769063,59452,316786,327986
1631018769073,59385,316764,327936
1631018769083,59338,316736,327953
1631018769093,59281,316740,327929
1631018769103,59228,316747,327943
1631018769113,59183,316699,327914
1631018769123,59122,316675,327913
1631018769133,59072,316630,327845
1631018769143,59023,316624,327835
1631018769153,58994,316596,327863
1631018769163,58941,316600,327851
1631018769173,58913,316564,327795
1631018769183,58894,316617,327764
1631018769193,58866,316608,327742
1631018769203,58830,316572,327731
1631018769213,58807,316575,327739
1631018769223,58777,316575,327709
1631018769233,58762,316554,327710
1631018769243,58722,316548,327705
1631018769253,58706,316511,327720
1631018769263,58689,316530,327665
1631018769273,58661,316496,327641
1631018769283,58641,316521,327622
1631018769293,58635,316507,327649
1631018769303,58611,316483,327636
1631018769313,58610,316501,327609
1631018769323,58598,316509,327590
1631018769333,58575,316466,327585
1631018769343,58565,316502,327585
1631018769353,58552,316496,327541
1631018769363,58545,316475,327531
1631018769373,58527,316483,327509
1631018769383,58542,316511,327472
1631018769393,58547,316462,327501
1631018769403,58543,316481,327511
1631018769413,58531,316474,327458
1631018769423,58533,316475,327442
1631018769433,58543,316507,327477
1631018769443,58543,316535,327464
1631018769453,58554,316489,327438
1631018769463,58553,316516,327440
1631018769473,58559,316508,327395
1631018769483,58577,316541,327408
1631018769493,58593,316554,327414
1631018769503,58595,316573,327391
1631018769513,58601,316549,327440
1631018769523,58606,316588,327447
1631018769533,58622,316567,327424
1631018769543,58629,316606,327430
1631018769553,58636,316622,327386
1631018769563,58637,316625,327433
1631018769573,58649,316612,327398
1631018769583,58680,316669,327384
1631018769593,58694,316667,327402
1631018769603,58710,316694,327397
1631018769613,58732,316665,327374
1631018769623,58730,316704,327394
1631018769633,58769,316700,327413
1631018769643,58794,316703,327445
1631018769653,58810,316762,327441
1631018769663,58832,316732,327495
1631018769673,58854,316731,327522
1631018769683,58866,316684,327545
1631018769693,58860,316645,327589
1631018769703,58840,316621,327604
1631018769713,58806,316577,327661
1631018769723,58757,316504,327627
1631018769733,58692,316469,327677
1631018769743,58618,316409,327644
1631018769753,58538,316420,327617
1631018769763,58476,316413,327599
1631018769773,58404,316369,327612
1631018769783,58336,316298,327587
1631018769793,58297,316332,327519
1631018769803,58248,316297,327559
1631018769813,58180,316283,327551
1631018769823,58143,316240,327535
1631018769833,58096,316241,327495
1631018769843,58040,316202,327517
1631018769853,58004,316171,327465
1631018769863,57959,316120,327461
1631018769873,57925,316174,327456
1631018769883,57892,316145,327448
1631018769893,57849,316116,327424
1631018769903,57834,316130,327418
1631018769913,57802,316069,327385
1631018769923,57777,316103,327380
1631018769933,57759,316119,327349
1631018769943,57753,316121,327366
1631018769953,57750,316080,327354
1631018769963,57716,316032,327310
1631018769973,57732,316110,327326
1631018769983,57729,316063,327364
1631018769993,57714,316100,327340
1631018770003,57717,316072,327355
1631018770013,57708,316045,327361
1631018770023,57695,316083,327299
1631018770033,57684,316051,327301
1631018770043,57689,316066,327304
1631018770053,57671,316086,327277
1631018770063,57676,316036,327299
1631018770073,57659,316074,327268
1631018770083,57673,316059,327297
1631018770093,57674,316087,327267
1631018770103,57675,316117,327266
1631018770113,57687,316116,327275
1631018770123,57691,316090,327282
1631018770133,57694,316116,327269
1631018770143,57718,316038,327224
1631018770153,57714,316097,327249
1631018770163,57739,316074,327268
1631018770173,57742,316117,327253
1631018770183,57766,316148,327276
1631018770193,57784,316143,327290
1631018770203,57805,316150,327282
1631018770213,57817,316161,327289
1631018770223,57828,316124,327294
1631018770233,57834,316181,327283
1631018770243,57848,316202,327287
1631018770253,57882,316182,327292
1631018770263,57877,316205,327288
1631018770273,57905,316183,327274
1631018770283,57938,316208,327277
1631018770293,57955,316271,327256
1631018770303,57973,316277,327265
1631018770313,58001,316269,327286
1631018770323,58019,316330,327270
1631018770333,58039,316321,327311
1631018770343,58054,316297,327332
1631018770353,58072,316281,327322
1631018770363,58113,316380,327304
1631018770373,58140,316373,327316
1631018770383,58150,316398,327356
1631018770393,58177,316397,327351
1631018770403,58225,316386,327361
1631018770413,58240,316326,327390
1631018770423,58254,316353,327416
1631018770433,58275,316334,327503
1631018770443,58287,316296,327518
1631018770453,58267,316229,327555
1631018770463,58233,316276,327591
1631018770473,58189,316207,327588
1631018770483,58116,316168,327602
1631018770493,58071,316119,327551
1631018770503,58007,316063,327602
1631018770513,57976,316107,327576
1631018770523,57933,316062,327566
1631018770533,57873,316065,327539
1631018770543,57836,316016,327534
1631018770553,57798,315980,327505
1631018770563,57780,315999,327512
1631018770573,57745,315951,327506
1631018770583,57706,315974,327534
1631018770593,57683,315924,327481
1631018770603,57663,315929,327493
1631018770613,57636,315940,327507
1631018770623,57619,315878,327493
1631018770633,57608,315932,327487
1631018770643,57588,315932,327479
1631018770653,57575,315914,327447
1631018770663,57579,315909,327416
1631018770673,57574,315911,327448
1631018770683,57575,315884,327476
1631018770693,57574,315932,327450
1631018770703,57570,315881,327447
1631018770713,57571,315891,327432
1631018770723,57568,315905,327420
1631018770733,57569,315901,327397
1631018770743,57564,315878,327441
1631018770753,57570,315903,327419
1631018770763,57589,315910,327399
1631018770773,57591,315885,327420
1631018770783,57592,315882,327399
1631018770793,57596,315885,327415
1631018770803,57596,315872,327408
1631018770813,57621,315899,327403
1631018770823,57625,315925,327390
1631018770833,57631,315932,327421
1631018770843,57644,315968,327398
1631018770853,57652,315959,327362
1631018770863,57671,315961,327395
1631018770873,57690,315952,327370
1631018770883,57696,315968,327368
1631018770893,57719,315979,327386
1631018770903,57741,316013,327381
1631018770913,57760,315986,327374
1631018770923,57799,316037,327416
1631018770933,57808,316034,327351
1631018770943,57830,316040,327402
1631018770953,57851,316017,327384
1631018770963,57874,316071,327375
1631018770973,57887,316050,327420
1631018770983,57925,316110,327397
1631018770993,57941,316085,327424
1631018771003,57965,316093,327434
1631018771013,57995,316130,327427
1631018771023,58030,316160,327419
1631018771033,58044,316161,327390
1631018771043,58073,316145,327435
1631018771053,58099,316173,327448
1631018771063,58123,316202,327477
1631018771073,58151,316219,327476
1631018771083,58186,316186,327465
1631018771093,58207,316232,327430
1631018771103,58223,316210,327463
1631018771113,58263,316240,327482
1631018771123,58261,316305,327452
1631018771133,58310,316349,327480
1631018771143,58336,316347,327477
1631018771153,58385,316342,327466
1631018771163,58396,316344,327471
1631018771173,58439,316346,327467
1631018771183,58464,316383,327504
1631018771193,58501,316421,327531
1631018771203,58547,316397,327535
1631018771213,58575,316395,327607
1631018771223,58602,316415,327614
1631018771233,58617,316362,327703
1631018771243,58620,316337,327698
1631018771253,58612,316325,327731
1631018771263,58592,316314,327759
1631018771273,58570,316266,327766
1631018771283,58519,316205,327745
1631018771293,58496,316201,327764
1631018771303,58426,316173,327748
1631018771313,58388,316141,327743
1631018771323,58356,316133,327761
1631018771333,58318,316123,327728
1631018771343,58280,316115,327736
1631018771353,58264,316110,327715
1631018771363,58217,316070,327701
1631018771373,58200,316074,327723
1631018771383,58169,316092,327698
1631018771393,58150,316040,327714
1631018771403,58124,316057,327695
1631018771413,58113,316050,327719
1631018771423,58102,316020,327671
1631018771433,58078,316047,327653
1631018771443,58074,316009,327630
1631018771453,58046,316016,327639
1631018771463,58045,316005,327601
1631018771473,58066,316016,327591
1631018771483,58058,316040,327604
1631018771493,58049,316011,327608
1631018771503,58071,315981,327634
1631018771513,58062,316012,327647
1631018771523,58065,316032,327562
1631018771533,58071,315985,327616
1631018771543,58066,316049,327584
1631018771553,58085,316045,327592
1631018771563,58082,316016,327596
1631018771573,58102,316004,327590
1631018771583,58106,316051,327591
1631018771593,58121,316043,327609
1631018771603,58129,316058,327601
1631018771613,58150,316083,327576
1631018771623,58156,316081,327567
1631018771633,58162,316047,327600
1631018771643,58176,316096,327580
1631018771653,58205,316121,327565
1631018771663,58221,316125,327558
1631018771673,58229,316120,327600
1631018771683,58252,316171,327574
1631018771693,58276,316109,327579
1631018771703,58297,316141,327542
1631018771713,58318,316128,327565
1631018771723,58340,316168,327558
1631018771733,58366,316135,327544
1631018771743,58374,316243,327596
1631018771753,58414,316151,327570
1631018771763,58432,316216,327585
1631018771773,58451,316238,327577
1631018771783,58462,316251,327578
1631018771793,58504,316218,327635
1631018771803,58531,316269,327590
1631018771813,58558,316292,327605
1631018771823,58583,316319,327600
1631018771833,58599,316304,327630
1631018771843,58621,316309,327587
1631018771853,58669,316322,327576
1631018771863,58693,316315,327609
1631018771873,58721,316347,327592
1631018771883,58757,316350,327630
1631018771893,58779,316393,327596
1631018771903,58817,316415,327624
1631018771913,58840,316410,327655
1631018771923,58878,316405,327625
1631018771933,58887,316486,327640
1631018771943,58928,316431,327656
1631018771953,58959,316468,327620
1631018771963,58993,316492,327679
1631018771973,59028,316445,327658
1631018771983,59056,316522,327641
1631018771993,59105,316550,327687
1631018772003,59131,316567,327679
1631018772013,59152,316541,327659
1631018772023,59186,316572,327691
1631018772033,59222,316571,327700
1631018772043,59261,316589,327719
1631018772053,59314,316616,327774
1631018772063,59334,316637,327785
1631018772073,59389,316651,327841
1631018772083,59413,316635,327904
1631018772093,59440,316611,327961
1631018772103,59455,316573,327990
1631018772113,59433,316510,328040
1631018772123,59426,316476,328042
1631018772133,59411,316432,328069
1631018772143,59383,316485,328069
1631018772153,59339,316443,328107
1631018772163,59296,316426,328056
1631018772173,59268,316377,328050
1631018772183,59240,316353,328082
1631018772193,59203,316371,328045
1631018772203,59178,316360,328076
1631018772213,59147,316368,328076
1631018772223,59144,316368,328097
1631018772233,59127,316315,328084
1631018772243,59103,316318,328094
1631018772253,59095,316346,328073
1631018772263,59062,316299,328100
1631018772273,59044,316304,328082
1631018772283,59029,316286,328085
1631018772293,59021,316312,328087
1631018772303,58997,316274,328061
1631018772313,59002,316293,328045
1631018772323,58992,316316,328045
1631018772333,59000,316296,328030
1631018772343,59000,316302,328025
1631018772353,58992,316308,328037
1631018772363,58994,316314,328054
1631018772373,59004,316280,328083
1631018772383,59008,316309,328057
1631018772393,59016,316309,328096
1631018772403,59025,316307,328068
1631018772413,59034,316305,328060
1631018772423,59016,316339,328071
1631018772433,59052,316319,328095
1631018772443,59048,316332,328074
1631018772453,59067,316318,328126
1631018772463,59072,316312,328120
1631018772473,59081,316324,328096
1631018772483,59093,316339,328115
1631018772493,59100,316377,328120
1631018772503,59112,316374,328080
1631018772513,59130,316382,328097
1631018772523,59148,316377,328112
1631018772533,59156,316407,328107
1631018772543,59181,316378,328077
1631018772553,59211,316469,328093
1631018772563,59234,316427,328090
1631018772573,59246,316415,328122
1631018772583,59260,316505,328076
1631018772593,59292,316447,328120
1631018772603,59316,316436,328095
1631018772613,59342,316501,328142
1631018772623,59349,316475,328133
1631018772633,59374,316550,328135
1631018772643,59394,316565,328118
1631018772653,59424,316563,328128
1631018772663,59441,316613,328103
1631018772673,59479,316565,328137
1631018772683,59492,316637,328175
1631018772693,59519,316590,328164
1631018772703,59548,316623,328189
1631018772713,59584,316661,328175
1631018772723,59604,316654,328161
1631018772733,59617,316707,328170
1631018772743,59671,316718,328187
1631018772753,59673,316708,328174
1631018772763,59706,316725,328181
1631018772773,59741,316791,328223
1631018772783,59774,316764,328229
1631018772793,59793,316765,328219
1631018772803,59823,316788,328232
1631018772813,59842,316806,328202
1631018772823,59880,316817,328219
1631018772833,59902,316827,328235
1631018772843,59933,316858,328256
1631018772853,59963,316899,328236
1631018772863,59994,316910,328237
1631018772873,60016,316870,328282
1631018772883,60052,316889,328231
1631018772893,60092,316956,328273
1631018772903,60110,316993,328299
1631018772913,60137,316984,328299
1631018772923,60172,316974,328264
1631018772933,60223,316982,328339
1631018772943,60264,317003,328332
1631018772953,60292,317013,328408
1631018772963,60339,316988,328461
1631018772973,60353,316974,328501
1631018772983,60371,316974,328557
1631018772993,60383,316969,328627
1631018773003,60372,316931,328649
1631018773013,60366,316878,328681
1631018773023,60361,316874,328655
1631018773033,60301,316870,328665
1631018773043,60291,316815,328637
1631018773053,60270,316805,328644
1631018773063,60234,316822,328666
1631018773073,60209,316782,328623
1631018773083,60179,316790,328664
1631018773093,60148,316772,328658
1631018773103,60140,316787,328651
1631018773113,60122,316756,328668
1631018773123,60104,316755,328614
1631018773133,60098,316784,328624
1631018773143,60065,316725,328619
1631018773153,60054,316769,328612
1631018773163,60043,316745,328625
1631018773173,60034,316685,328583
1631018773183,60037,316743,328584
1631018773193,60002,316752,328591
1631018773203,60023,316742,328595
1631018773213,60032,316756,328569
1631018773223,60002,316737,328586
1631018773233,60010,316755,328580
1631018773243,60033,316723,328598
1631018773253,60015,316735,328585
1631018773263,60025,316752,328571
1631018773273,60029,316721,328569
1631018773283,60018,316735,328569
1631018773293,60027,316771,328574
1631018773303,60020,316752,328553
1631018773313,60027,316760,328562
1631018773323,60041,316772,328550
1631018773333,60049,316767,328552
1631018773343,60036,316782,328542
1631018773353,60043,316793,328568
1631018773363,60061,316762,328517
1631018773373,60092,316789,328560
1631018773383,60087,316800,328557
1631018773393,60083,316788,328563
1631018773403,60094,316801,328554
1631018773413,60126,316836,328557
1631018773423,60131,316786,328558
1631018773433,60146,316845,328540
1631018773443,60152,316832,328556
1631018773453,60179,316851,328548
1631018773463,60200,316853,328507
1631018773473,60205,316882,328509
1631018773483,60208,316841,328526
1631018773493,60231,316886,328511
1631018773503,60243,316862,328517
1631018773513,60283,316906,328545
1631018773523,60297,316929,328524
1631018773533,60307,316925,328523
1631018773543,60325,316930,328515
1631018773553,60345,316932,328501
1631018773563,60363,316912,328506
1631018773573,60393,316960,328525
1631018773583,60419,316970,328508
1631018773593,60443,316960,328521
1631018773603,60468,316984,328521
1631018773613,60481,317032,328528
1631018773623,60498,317003,328503
1631018773633,60521,317006,328536
1631018773643,60546,317027,328561
1631018773653,60565,316982,328529
1631018773663,60586,317006,328589
1631018773673,60627,317099,328512
1631018773683,60658,317081,328554
1631018773693,60657,317094,328547
1631018773703,60682,317094,328556
1631018773713,60724,317091,328562
1631018773723,60723,317141,328552
1631018773733,60755,317152,328534
1631018773743,60787,317174,328529
1631018773753,60807,317207,328560
1631018773763,60831,317193,328525
1631018773773,60846,317237,328532
1631018773783,60875,317233,328559
1631018773793,60905,317229,328584
1631018773803,60942,317237,328576
1631018773813,60973,317282,328653
1631018773823,61020,317235,328699
1631018773833,61043,317207,328737
1631018773843,61053,317137,328787
1631018773853,61052,317131,328801
1631018773863,61055,317109,328810
1631018773873,61009,317094,328827
1631018773883,60981,317081,328847
1631018773893,60937,317020,328831
1631018773903,60907,316999,328843
1631018773913,60879,317024,328825
1631018773923,60839,316983,328836
1631018773933,60800,316954,328775
1631018773943,60752,316941,328832
1631018773953,60721,316983,328804
1631018773963,60690,316969,328801
1631018773973,60658,316894,328800
1631018773983,60636,316938,328752
1631018773993,60602,316913,328776
1631018774003,60586,316907,328744
1631018774013,60551,316931,328741
1631018774023,60528,316913,328757
1631018774033,60480,316887,328695
1631018774043,60473,316826,328702
1631018774053,60449,316798,328672
1631018774063,60437,316839,328655
1631018774073,60430,316847,328668
1631018774083,60412,316855,328618
1631018774093,60401,316853,328602
1631018774103,60392,316852,328629
1631018774113,60368,316856,328583
1631018774123,60355,316813,328609
1631018774133,60353,316842,328590
1631018774143,60341,316852,328594
1631018774153,60335,316860,328576
1631018774163,60316,316882,328597
1631018774173,60324,316839,328582
1631018774183,60299,316840,328564
1631018774193,60309,316835,328519
1631018774203,60305,316820,328580
1631018774213,60287,316818,328532
1631018774223,60278,316823,328545
1631018774233,60277,316852,328527
1631018774243,60280,316854,328518
1631018774253,60280,316858,328504
1631018774263,60290,316819,328516
1631018774273,60280,316889,328497
1631018774283,60290,316872,328473
1631018774293,60297,316846,328470
1631018774303,60302,316854,328474
1631018774313,60314,316846,328475
1631018774323,60316,316884,328450
1631018774333,60327,316893,328474
1631018774343,60340,316893,328473
1631018774353,60354,316920,328451
1631018774363,60372,316978,328449
1631018774373,60372,316886,328399
1631018774383,60386,316900,328441
1631018774393,60389,316942,328415
1631018774403,60405,316970,328404
1631018774413,60412,316963,328433
1631018774423,60432,316964,328416
1631018774433,60420,316989,328404
1631018774443,60450,316969,328465
1631018774453,60461,316988,328392
1631018774463,60469,317009,328431
1631018774473,60485,317026,328436
1631018774483,60506,317008,328420
1631018774493,60549,317049,328447
1631018774503,60555,317055,328413
1631018774513,60559,317053,328442
1631018774523,60590,317112,328402
1631018774533,60599,317116,328427
1631018774543,60614,317129,328403
1631018774553,60631,317127,328426
1631018774563,60650,317143,328388
1631018774573,60667,317166,328380
1631018774583,60681,317172,328399
1631018774593,60707,317151,328415
1631018774603,60726,317191,328410
1631018774613,60725,317203,328403
1631018774623,60748,317242,328405
1631018774633,60780,317254,328436
1631018774643,60806,317282,328424
1631018774653,60838,317258,328479
1631018774663,60871,317265,328512
1631018774673,60901,317239,328554
1631018774683,60910,317224,328586
1631018774693,60911,317155,328643
1631018774703,60895,317154,328667
1631018774713,60888,317137,328684
1631018774723,60848,317063,328705
1631018774733,60796,317032,328708
1631018774743,60750,316980,328656
1631018774753,60685,317009,328657
1631018774763,60627,316996,328664
1631018774773,60565,316925,328652
1631018774783,60514,316919,328617
1631018774793,60470,316906,328618
1631018774803,60415,316866,328615
1631018774813,60368,316883,328590
1631018774823,60319,316841,328547
1631018774833,60277,316863,328537
1631018774843,60240,316806,328548
1631018774853,60179,316776,328558
1631018774863,60141,316774,328498
1631018774873,60094,316780,328506
1631018774883,60048,316756,328454
1631018774893,59995,316749,328445
1631018774903,59963,316729,328427
1631018774913,59929,316751,328423
1631018774923,59906,316694,328405
1631018774933,59877,316727,328390
1631018774943,59844,316741,328366
1631018774953,59823,316707,328312
1631018774963,59806,316699,328383
1631018774973,59785,316700,328336
1631018774983,59754,316674,328361
1631018774993,59742,316673,328306
1631018775003,59715,316658,328317
1631018775013,59703,316616,328324
1631018775023,59683,316654,328315
1631018775033,59652,316651,328273
1631018775043,59638,316688,328263
1631018775053,59635,316642,328251
1631018775063,59601,316671,328250
1631018775073,59604,316653,328257
1631018775083,59590,316641,328235
1631018775093,59575,316688,328196
1631018775103,59569,316681,328170
1631018775113,59552,316679,328148
1631018775123,59550,316713,328185
1631018775133,59565,316673,328154
1631018775143,59571,316674,328159
1631018775153,59560,316718,328121
1631018775163,59552,316689,328182
1631018775173,59578,316741,328142
1631018775183,59570,316689,328130
1631018775193,59576,316748,328109
1631018775203,59587,316789,328140
1631018775213,59599,316805,328129
1631018775223,59612,316766,328136
1631018775233,59611,316763,328111
1631018775243,59618,316751,328109
1631018775253,59618,316799,328080
1631018775263,59624,316788,328131
1631018775273,59645,316761,328102
1631018775283,59660,316819,328122
1631018775293,59670,316846,328078
1631018775303,59682,316816,328104
1631018775313,59723,316834,328121
1631018775323,59730,316898,328111
1631018775333,59744,316895,328083
1631018775343,59764,316868,328124
1631018775353,59778,316900,328089
1631018775363,59789,316920,328077
1631018775373,59811,316926,328118
1631018775383,59823,316897,328109
1631018775393,59822,316928,328122
1631018775403,59843,316929,328060
1631018775413,59857,316975,328105
1631018775423,59881,316977,328120
1631018775433,59902,317013,328092
1631018775443,59937,317000,328116
1631018775453,59939,317012,328120
1631018775463,59986,317057,328119
1631018775473,60000,317027,328146
1631018775483,60026,317076,328135
1631018775493,60066,317114,328158
1631018775503,60078,317094,328217
1631018775513,60101,317068,328269
1631018775523,60107,317017,328286
1631018775533,60093,316966,328310
1631018775543,60065,316914,328363
1631018775553,60033,316915,328342
1631018775563,59982,316866,328384
1631018775573,59924,316796,328372
1631018775583,59861,316821,328329
1631018775593,59791,316812,328294
1631018775603,59734,316802,328297
1631018775613,59688,316782,328263
1631018775623,59624,316789,328257
1631018775633,59591,316730,328277
1631018775643,59527,316668,328237
1631018775653,59498,316669,328205
1631018775663,59447,316659,328199
1631018775673,59411,316656,328214
1631018775683,59367,316644,328198
1631018775693,59336,316604,328185
1631018775703,59280,316571,328211
1631018775713,59253,316604,328169
1631018775723,59214,316520,328137
1631018775733,59184,316567,328114
1631018775743,59166,316568,328088
1631018775753,59141,316583,328096
1631018775763,59128,316577,328087
1631018775773,59117,316579,328078
1631018775783,59113,316555,328076
1631018775793,59095,316590,328041
1631018775803,59093,316514,328047
1631018775813,59077,316541,328058
1631018775823,59072,316551,328034
1631018775833,59046,316534,328022
1631018775843,59041,316536,328071
1631018775853,59037,316474,328051
1631018775863,59024,316513,328038
1631018775873,59020,316519,328011
1631018775883,59004,316539,328012
1631018775893,59002,316513,328005
1631018775903,58984,316505,327975
1631018775913,58975,316536,327963
1631018775923,58991,316540,327951
1631018775933,58991,316550,327942
1631018775943,58985,316514,327945
1631018775953,59002,316525,327967
1631018775963,58991,316518,327940
1631018775973,59024,316522,327943
1631018775983,59017,316551,327925
1631018775993,59037,316520,327963
1631018776003,59035,316564,327938
1631018776013,59055,316577,327924
1631018776023,59058,316569,327913
1631018776033,59060,316565,327942
1631018776043,59086,316608,327952
1631018776053,59077,316612,327925
1631018776063,59097,316612,327903
1631018776073,59121,316635,327906
1631018776083,59143,316606,327880
1631018776093,59156,316619,327914
1631018776103,59179,316665,327912
1631018776113,59197,316637,327886
1631018776123,59205,316658,327899
1631018776133,59202,316710,327901
1631018776143,59243,316679,327904
1631018776153,59247,316660,327893
1631018776163,59257,316704,327897
1631018776173,59282,316678,327955
1631018776183,59295,316730,327921
1631018776193,59327,316675,327891
1631018776203,59340,316716,327914
1631018776213,59378,316761,327914
1631018776223,59388,316753,327904
1631018776233,59402,316776,327906
1631018776243,59440,316842,327905
1631018776253,59445,316819,327942
1631018776263,59473,316811,327933
1631018776273,59512,316842,327963
1631018776283,59541,316747,328024
1631018776293,59550,316829,328049
1631018776303,59570,316797,328106
1631018776313,59574,316768,328103
1631018776323,59558,316736,328132
1631018776333,59529,316706,328171
1631018776343,59480,316633,328127
1631018776353,59436,316572,328165
1631018776363,59368,316520,328209
1631018776373,59329,316537,328119
1631018776383,59265,316507,328132
1631018776393,59218,316485,328063
1631018776403,59178,316475,328053
1631018776413,59118,316499,328060
1631018776423,59080,316438,328031
1631018776433,59052,316469,327983
1631018776443,59026,316408,327986
1631018776453,59001,316397,327991
1631018776463,58967,316411,327996
1631018776473,58947,316383,327981
1631018776483,58903,316407,327981
1631018776493,58897,316363,327957
1631018776503,58872,316335,327970
1631018776513,58840,316332,327883
1631018776523,58837,316335,327888
1631018776533,58830,316296,327872
1631018776543,58808,316313,327874
1631018776553,58805,316313,327885
1631018776563,58804,316305,327857
1631018776573,58806,316305,327870
1631018776583,58803,316315,327873
1631018776593,58810,316283,327860
1631018776603,58792,316312,327832
1631018776613,58777,316283,327856
1631018776623,58802,316354,327821
1631018776633,58798,316335,327827
1631018776643,58802,316290,327854
1631018776653,58798,316337,327805
1631018776663,58788,316294,327777
1631018776673,58805,316316,327846
1631018776683,58806,316297,327783
1631018776693,58807,316325,327796
1631018776703,58820,316352,327796
1631018776713,58824,316305,327792
1631018776723,58836,316365,327767
1631018776733,58845,316350,327796
1631018776743,58860,316305,327756
1631018776753,58881,316366,327727
1631018776763,58913,316377,327767
1631018776773,58926,316367,327776
1631018776783,58915,316395,327759
1631018776793,58941,316404,327756
1631018776803,58958,316435,327755
1631018776813,58996,316434,327754
1631018776823,59002,316417,327762
1631018776833,59032,316490,327777
1631018776843,59049,316472,327718
1631018776853,59067,316489,327736
1631018776863,59075,316504,327753
1631018776873,59097,316478,327757
1631018776883,59117,316515,327769
1631018776893,59137,316544,327755
1631018776903,59160,316499,327726
1631018776913,59187,316579,327745
1631018776923,59222,316580,327769
1631018776933,59222,316602,327746
1631018776943,59271,316603,327781
1631018776953,59282,316593,327792
1631018776963,59303,316635,327783
1631018776973,59328,316687,327802
1631018776983,59361,316659,327784
1631018776993,59386,316692,327814
1631018777003,59431,316687,327793
1631018777013,59464,316692,327839
1631018777023,59496,316686,327870
1631018777033,59510,316613,327913
1631018777043,59532,316615,327949
1631018777053,59513,316580,327977
1631018777063,59511,316576,327985
1631018777073,59486,316496,328024
1631018777083,59453,316475,328029
1631018777093,59399,316434,327985
1631018777103,59335,316420,328030
1631018777113,59295,316402,327987
1631018777123,59237,316399,327995
1631018777133,59191,316389,327968
1631018777143,59144,316385,327920
1631018777153,59119,316302,327948
1631018777163,59059,316259,327903
1631018777173,59043,316278,327886
1631018777183,59008,316295,327900
1631018777193,58964,316244,327847
1631018777203,58953,316291,327870
1631018777213,58917,316225,327837
1631018777223,58883,316198,327820
1631018777233,58866,316192,327803
1631018777243,58845,316258,327794
1631018777253,58801,316207,327795
1631018777263,58807,316198,327757
1631018777273,58799,316219,327755
1631018777283,58776,316199,327740
1631018777293,58773,316215,327710
1631018777303,58783,316229,327749
1631018777313,58782,316190,327716
1631018777323,58788,316213,327737
1631018777333,58781,316180,327718
1631018777343,58773,316183,327743
1631018777353,58771,316222,327697
1631018777363,58773,316216,327709
1631018777373,58769,316190,327722
1631018777383,58775,316208,327693
1631018777393,58777,316170,327681
1631018777403,58791,316280,327635
1631018777413,58774,316230,327682
1631018777423,58787,316241,327696
1631018777433,58796,316249,327681
1631018777443,58803,316215,327675
1631018777453,58808,316209,327651
1631018777463,58826,316270,327644
1631018777473,58829,316215,327651
1631018777483,58843,316316,327667
1631018777493,58852,316257,327687
1631018777503,58874,316275,327664
1631018777513,58890,316291,327670
1631018777523,58902,316311,327651
1631018777533,58928,316290,327655
1631018777543,58939,316344,327689
1631018777553,58962,316308,327690
1631018777563,58979,316327,327646
1631018777573,59002,316319,327670
1631018777583,59009,316396,327666
1631018777593,59036,316347,327653
1631018777603,59048,316417,327676
1631018777613,59072,316392,327664
1631018777623,59101,316411,327673
1631018777633,59106,316391,327654
1631018777643,59136,316384,327686
1631018777653,59147,316464,327673
1631018777663,59176,316438,327695
1631018777673,59199,316484,327642
1631018777683,59217,316476,327682
1631018777693,59249,316475,327662
1631018777703,59276,316492,327685
1631018777713,59305,316480,327722
1631018777723,59347,316481,327757
1631018777733,59371,316524,327804
1631018777743,59404,316502,327835
1631018777753,59413,316483,327872
1631018777763,59392,316427,327886
1631018777773,59389,316414,327878
1631018777783,59357,316343,327907
1631018777793,59335,316342,327898
1631018777803,59286,316338,327905
1631018777813,59248,316294,327899
1631018777823,59200,316236,327898
1631018777833,59165,316196,327869
1631018777843,59128,316206,327847
1631018777853,59084,316223,327866
1631018777863,59052,316218,327878
1631018777873,59025,316189,327832
1631018777883,59011,316193,327818
1631018777893,58977,316131,327844
1631018777903,58962,316125,327782
1631018777913,58960,316131,327755
1631018777923,58935,316156,327795
1631018777933,58903,316086,327782
1631018777943,58892,316072,327780
1631018777953,58879,316108,327742
1631018777963,58870,316135,327740
1631018777973,58866,316120,327738
1631018777983,58845,316107,327758
1631018777993,58854,316121,327744
1631018778003,58870,316129,327771
1631018778013,58865,316097,327736
1631018778023,58861,316137,327755
1631018778033,58864,316148,327731
1631018778043,58861,316125,327750
1631018778053,58860,316109,327751
1631018778063,58878,316099,327726
1631018778073,58872,316146,327739
1631018778083,58877,316136,327726
1631018778093,58887,316092,327725
1631018778103,58882,316090,327731
1631018778113,58890,316151,327733
1631018778123,58904,316170,327692
1631018778133,58903,316150,327705
1631018778143,58923,316121,327706
1631018778153,58937,316136,327717
1631018778163,58935,316144,327723
1631018778173,58949,316187,327704
1631018778183,58966,316210,327701
1631018778193,58977,316173,327730
1631018778203,59019,316141,327709
1631018778213,59020,316181,327710
1631018778223,59046,316213,327759
1631018778233,59071,316226,327706
1631018778243,59085,316240,327708
1631018778253,59083,316230,327728
1631018778263,59105,316213,327737
1631018778273,59121,316306,327731
1631018778283,59149,316275,327729
1631018778293,59169,316310,327760
1631018778303,59193,316273,327724
1631018778313,59206,316344,327772
1631018778323,59220,316311,327729
1631018778333,59228,316308,327756
1631018778343,59259,316343,327757
1631018778353,59283,316362,327786
1631018778363,59304,316314,327783
1631018778373,59322,316364,327765
1631018778383,59372,316404,327796
1631018778393,59389,316379,327795
1631018778403,59424,316396,327812
1631018778413,59450,316409,327798
1631018778423,59484,316449,327859
1631018778433,59517,316429,327851
1631018778443,59535,316399,327968
1631018778453,59543,316373,327955
1631018778463,59545,316316,328002
1631018778473,59533,316276,328023
1631018778483,59502,316243,328045
1631018778493,59468,316235,327987
1631018778503,59425,316224,328077
1631018778513,59384,316149,328036
1631018778523,59337,316193,328033
1631018778533,59333,316176,327999
1631018778543,59281,316158,328030
1631018778553,59261,316133,328043
1631018778563,59234,316105,327988
1631018778573,59189,316098,327974
1631018778583,59162,316087,327982
1631018778593,59138,316088,327957
1631018778603,59124,316065,327939
1631018778613,59101,316015,327918
1631018778623,59078,316054,327966
1631018778633,59047,316047,327900
1631018778643,59046,316023,327960
1631018778653,59028,316024,327909
1631018778663,59014,316011,327906
1631018778673,59010,316021,327876
1631018778683,59002,316040,327877
1631018778693,59023,316020,327905
1631018778703,59019,316041,327854
1631018778713,59023,316037,327857
1631018778723,59010,316039,327878
1631018778733,59003,316052,327879
1631018778743,59006,316034,327853
1631018778753,59000,316009,327872
1631018778763,59024,316022,327871
1631018778773,59024,316018,327868
1631018778783,59023,316004,327859
1631018778793,59042,316011,327828
1631018778803,59040,316030,327845
1631018778813,59041,316051,327822
1631018778823,59052,316031,327813
1631018778833,59039,316031,327850
1631018778843,59062,316063,327827
1631018778853,59092,316084,327802
1631018778863,59107,316069,327833
1631018778873,59107,316088,327820
1631018778883,59114,316112,327835
1631018778893,59145,316068,327841
1631018778903,59152,316148,327818
1631018778913,59181,316098,327848
1631018778923,59196,316166,327872
1631018778933,59215,316134,327853
1631018778943,59243,316129,327837
1631018778953,59258,316148,327832
1631018778963,59266,316149,327889
1631018778973,59279,316160,327866
1631018778983,59308,316150,327877
1631018778993,59323,316181,327879
1631018779003,59337,316180,327883
1631018779013,59371,316229,327874
1631018779023,59392,316164,327862
1631018779033,59414,316217,327850
1631018779043,59433,316246,327854
1631018779053,59457,316245,327879
1631018779063,59482,316241,327870
1631018779073,59502,316283,327895
1631018779083,59532,316329,327902
1631018779093,59553,316311,327923
1631018779103,59582,316319,327898
1631018779113,59606,316295,327907
1631018779123,59645,316310,327969
1631018779133,59657,316332,327947
1631018779143,59689,316387,328025
1631018779153,59712,316311,328047
1631018779163,59726,316329,328075
1631018779173,59726,316269,328148
1631018779183,59727,316221,328136
1631018779193,59692,316207,328167
1631018779203,59669,316167,328174
1631018779213,59624,316166,328156
1631018779223,59589,316110,328172
1631018779233,59524,316097,328200
1631018779243,59505,316121,328152
1631018779253,59456,316072,328153
1631018779263,59413,316065,328123
1631018779273,59391,316063,328135
1631018779283,59357,316045,328097
1631018779293,59313,316016,328118
1631018779303,59287,316024,328106
1631018779313,59269,315997,328086
1631018779323,59242,315962,328104
1631018779333,59204,315927,328098
1631018779343,59198,315974,328073
1631018779353,59169,315939,328050
1631018779363,59162,315962,327996
1631018779373,59125,315954,328021
1631018779383,59132,315883,327997
1631018779393,59106,315900,328020
1631018779403,59118,315968,327991
1631018779413,59109,315912,327984
1631018779423,59100,315922,328002
1631018779433,59096,315903,327962
1631018779443,59089,315936,327944
1631018779453,59105,315925,327928
1631018779463,59095,315972,327964
1631018779473,59081,315930,327946
1631018779483,59073,315928,327919
1631018779493,59080,315897,327940
1631018779503,59091,315892,327958
1631018779513,59083,315942,327949
1631018779523,59077,315941,327921
1631018779533,59089,315942,327926
1631018779543,59085,315976,327924
1631018779553,59078,315965,327940
1631018779563,59099,315933,327878
1631018779573,59109,315954,327917
1631018779583,59110,315950,327869
1631018779593,59130,315946,327892
1631018779603,59136,315957,327889
1631018779613,59139,315958,327833
1631018779623,59156,315949,327881
1631018779633,59170,315985,327870
1631018779643,59182,315990,327871
1631018779653,59198,315975,327854
1631018779663,59240,315992,327864
1631018779673,59244,316017,327829
1631018779683,59249,316069,327848
1631018779693,59270,316067,327851
1631018779703,59288,316080,327855
1631018779713,59301,316086,327879
1631018779723,59313,316057,327875
1631018779733,59344,316103,327852
1631018779743,59356,316082,327863
1631018779753,59380,316063,327870
1631018779763,59403,316073,327841
1631018779773,59403,316138,327834
1631018779783,59426,316109,327855
1631018779793,59448,316204,327881
1631018779803,59469,316171,327856
1631018779813,59494,316195,327871
1631018779823,59521,316219,327851
1631018779833,59541,316229,327855
1631018779843,59568,316251,327873
1631018779853,59605,316224,327848
1631018779863,59622,316254,327883
1631018779873,59653,316296,327907
1631018779883,59692,316297,327907
1631018779893,59717,316281,327970
1631018779903,59754,316264,327967
1631018779913,59749,316219,328010
1631018779923,59747,316216,328087
1631018779933,59720,316146,328101
1631018779943,59687,316132,328118
1631018779953,59656,316054,328109
1631018779963,59610,316064,328126
1631018779973,59562,316001,328091
1631018779983,59537,316042,328092
1631018779993,59495,315998,328068
1631018780003,59450,315987,328080
1631018780013,59409,315959,328049
1631018780023,59379,315973,328045
1631018780033,59340,315956,328065
1631018780043,59309,315947,328071
1631018780053,59259,315950,328049
1631018780063,59250,315914,328029
1631018780073,59217,315865,328019
1631018780083,59187,315903,328008
1631018780093,59159,315885,327986
1631018780103,59129,315865,327973
1631018780113,59097,315899,327953
1631018780123,59076,315893,327933
1631018780133,59063,315861,327942
1631018780143,59075,315890,327927
1631018780153,59068,315885,327901
1631018780163,59033,315865,327892
1631018780173,59049,315879,327901
1631018780183,59029,315815,327896
1631018780193,59017,315873,327848
1631018780203,59020,315856,327888
1631018780213,59018,315886,327847
1631018780223,59006,315852,327860
1631018780233,59015,315858,327835
1631018780243,59018,315882,327852
1631018780253,59000,315830,327850
1631018780263,59021,315886,327844
1631018780273,59006,315854,327856
1631018780283,59004,315863,327822
1631018780293,59008,315853,327806
1631018780303,59016,315852,327856
1631018780313,59038,315925,327789
1631018780323,59026,315915,327802
1631018780333,59041,315892,327765
1631018780343,59032,315877,327781
1631018780353,59036,315917,327792
1631018780363,59053,315892,327753
1631018780373,59085,315908,327770
1631018780383,59088,315888,327792
1631018780393,59104,315948,327771
1631018780403,59126,315965,327741
1631018780413,59137,315980,327796
1631018780423,59151,315984,327750
1631018780433,59154,315993,327769
1631018780443,59167,316016,327776
1631018780453,59191,315993,327793
1631018780463,59206,315996,327775
1631018780473,59246,316048,327767
1631018780483,59248,316027,327754
1631018780493,59255,316083,327773
1631018780503,59281,316057,327749
1631018780513,59299,316091,327735
1631018780523,59307,316074,327757
1631018780533,59333,316115,327738
1631018780543,59345,316154,327728
1631018780553,59379,316145,327786
1631018780563,59407,316109,327753
1631018780573,59425,316151,327773
1631018780583,59446,316151,327778
1631018780593,59457,316192,327759
1631018780603,59482,316192,327731
1631018780613,59506,316210,327785
1631018780623,59536,316205,327818
1631018780633,59571,316187,327835
1631018780643,59583,316185,327880
1631018780653,59627,316175,327949
1631018780663,59626,316133,327941
1631018780673,59612,316082,328001
1631018780683,59588,316052,327998
1631018780693,59566,316049,327997
1631018780703,59527,316012,328009
1631018780713,59482,315987,328027
1631018780723,59441,315990,327998
1631018780733,59397,315979,328006
1631018780743,59345,315993,327989
1631018780753,59310,315884,327961
1631018780763,59283,315908,327971
1631018780773,59246,315949,327963
1631018780783,59217,315945,327954
1631018780793,59186,315903,327930
1631018780803,59175,315940,327951
1631018780813,59171,315921,327921
1631018780823,59136,315898,327901
1631018780833,59131,315903,327917
1631018780843,59116,315911,327904
1631018780853,59096,315861,327866
1631018780863,59087,315889,327875
1631018780873,59096,315874,327861
1631018780883,59094,315866,327881
1631018780893,59078,315918,327886
1631018780903,59072,315871,327876
1631018780913,59081,315933,327893
1631018780923,59093,315878,327873
1631018780933,59095,315913,327894
1631018780943,59084,315835,327875
1631018780953,59082,315947,327856
1631018780963,59086,315923,327843
1631018780973,59082,315919,327876
1631018780983,59074,315911,327863
1631018780993,59068,315930,327873
1631018781003,59083,315914,327855
1631018781013,59076,315918,327833
1631018781023,59080,315933,327858
1631018781033,59088,315936,327861
1631018781043,59099,315920,327866
1631018781053,59108,315958,327831
1631018781063,59119,315965,327828
1631018781073,59128,315946,327846
1631018781083,59143,316006,327847
1631018781093,59155,315977,327849
1631018781103,59166,316005,327842
1631018781113,59177,315995,327835
1631018781123,59196,316038,327838
1631018781133,59234,316031,327828
1631018781143,59242,316040,327831
1631018781153,59258,316040,327837
1631018781163,59278,316064,327820
1631018781173,59276,316122,327840
1631018781183,59308,316085,327837
1631018781193,59320,316098,327854
1631018781203,59351,316113,327825
1631018781213,59359,316098,327825
1631018781223,59390,316101,327804
1631018781233,59418,316123,327866
1631018781243,59432,316164,327872
1631018781253,59434,316137,327859
1631018781263,59460,316185,327836
1631018781273,59480,316166,327869
1631018781283,59516,316207,327837
1631018781293,59538,316213,327864
1631018781303,59562,316229,327853
1631018781313,59590,316243,327865
1631018781323,59604,316246,327908
1631018781333,59632,316291,327849
1631018781343,59661,316278,327855
1631018781353,59686,316294,327923
1631018781363,59743,316256,328016
1631018781373,59764,316286,328016
1631018781383,59783,316272,328045
1631018781393,59778,316264,328063
1631018781403,59767,316197,328110
1631018781413,59745,316144,328155
1631018781423,59715,316129,328145
1631018781433,59689,316085,328163
1631018781443,59629,316097,328118
1631018781453,59602,316085,328147
1631018781463,59565,316043,328155
1631018781473,59535,316057,328124
1631018781483,59490,316047,328109
1631018781493,59454,316042,328073
1631018781503,59417,315995,328112
1631018781513,59395,315983,328050
1631018781523,59358,315995,328072
1631018781533,59350,315951,328044
1631018781543,59327,315999,328022
1631018781553,59294,315958,328011
1631018781563,59278,315974,328032
1631018781573,59263,315932,327995
1631018781583,59247,315963,327980
1631018781593,59221,315944,327945
1631018781603,59228,315968,327948
1631018781613,59212,315955,327940
1631018781623,59225,315965,327949
1631018781633,59229,315989,327959
1631018781643,59206,315968,327908
1631018781653,59209,315998,327956
1631018781663,59216,315989,327943
1631018781673,59209,315933,327953
1631018781683,59211,315941,327903
1631018781693,59222,315961,327913
1631018781703,59214,315974,327894
1631018781713,59193,315967,327894
1631018781723,59197,315974,327906
1631018781733,59205,315990,327894
1631018781743,59199,316008,327882
1631018781753,59210,315973,327892
1631018781763,59218,315989,327833
1631018781773,59219,316006,327838
1631018781783,59226,316056,327898
1631018781793,59250,316045,327859
1631018781803,59248,316080,327874
1631018781813,59270,316051,327842
1631018781823,59275,316040,327842
1631018781833,59303,316083,327845
1631018781843,59318,316086,327882
1631018781853,59340,316120,327837
1631018781863,59336,316052,327838
1631018781873,59370,316134,327802
1631018781883,59391,316127,327861
1631018781893,59402,316152,327827
1631018781903,59415,316131,327837
1631018781913,59442,316154,327847
1631018781923,59458,316156,327821
1631018781933,59474,316201,327829
1631018781943,59501,316200,327817
1631018781953,59530,316242,327870
1631018781963,59536,316212,327831
1631018781973,59577,316227,327851
1631018781983,59589,316237,327821
1631018781993,59609,316273,327831
1631018782003,59639,316286,327854
1631018782013,59666,316289,327823
1631018782023,59688,316289,327852
1631018782033,59706,316343,327849
1631018782043,59741,316330,327864
1631018782053,59767,316388,327861
1631018782063,59794,316372,327897
1631018782073,59831,316416,327864
1631018782083,59865,316355,327916
1631018782093,59900,316388,327978
1631018782103,59931,316357,328011
1631018782113,59938,316353,328035
1631018782123,59936,316345,328091
1631018782133,59911,316253,328088
1631018782143,59875,316191,328113
1631018782153,59838,316198,328091
1631018782163,59801,316128,328130
1631018782173,59771,316118,328089
1631018782183,59733,316139,328107
1631018782193,59688,316126,328079
1631018782203,59637,316092,328086
1631018782213,59604,316083,328061
1631018782223,59571,316088,328031
1631018782233,59554,316070,328050
1631018782243,59506,316094,328019
1631018782253,59476,316048,328012
1631018782263,59449,316044,328042
1631018782273,59436,316042,328043
1631018782283,59429,316056,328041
1631018782293,59394,316006,328015
1631018782303,59373,316038,327980
1631018782313,59361,315990,328022
1631018782323,59344,316060,327994
1631018782333,59337,316026,327977
1631018782343,59315,316052,327974
1631018782353,59328,315994,327931
1631018782363,59325,316060,327987
1631018782373,59316,316030,327951
1631018782383,59311,316030,327964
1631018782393,59306,316030,327947
1631018782403,59308,316030,327970
1631018782413,59307,316052,327951
1631018782423,59318,316072,327949
1631018782433,59300,316038,327942
1631018782443,59296,316050,327943
1631018782453,59301,316037,327972
1631018782463,59306,316049,327926
1631018782473,59309,316070,327907
1631018782483,59325,316049,327918
1631018782493,59304,316106,327910
1631018782503,59324,316107,327911
1631018782513,59341,316124,327898
1631018782523,59334,316105,327876
1631018782533,59340,316133,327912
1631018782543,59364,316124,327912
1631018782553,59379,316115,327925
1631018782563,59401,316133,327895
1631018782573,59415,316144,327873
1631018782583,59439,316218,327908
1631018782593,59456,316180,327916
1631018782603,59471,316218,327887
1631018782613,59482,316195,327943
1631018782623,59510,316245,327904
1631018782633,59523,316229,327894
1631018782643,59534,316225,327914
1631018782653,59561,316276,327924
1631018782663,59577,316273,327894
1631018782673,59603,316283,327908
1631018782683,59616,316286,327927
1631018782693,59624,316311,327910
1631018782703,59644,316340,327918
1631018782713,59655,316318,327928
1631018782723,59682,316350,327914
1631018782733,59705,316358,327929
1631018782743,59739,316392,327920
1631018782753,59772,316389,327952
1631018782763,59786,316422,327917
1631018782773,59808,316452,327937
1631018782783,59840,316471,327922
1631018782793,59854,316461,327938
1631018782803,59895,316509,327956
1631018782813,59925,316477,327994
1631018782823,59960,316546,328015
1631018782833,59981,316489,328053
1631018782843,60001,316481,328121
1631018782853,60020,316449,328148
1631018782863,60029,316439,328175
1631018782873,60012,316406,328197
1631018782883,59993,316415,328215
1631018782893,59956,316316,328237
1631018782903,59939,316318,328214
1631018782913,59878,316267,328256
1631018782923,59840,316290,328206
1631018782933,59775,316303,328179
1631018782943,59755,316286,328162
1631018782953,59698,316208,328178
1631018782963,59681,316263,328163
1631018782973,59649,316220,328115
1631018782983,59614,316229,328119
1631018782993,59580,316232,328121
1631018783003,59540,316218,328091
1631018783013,59536,316141,328083
1631018783023,59513,316186,328091
1631018783033,59496,316204,328080
1631018783043,59472,316181,328083
1631018783053,59473,316171,328047
1631018783063,59447,316195,328069
1631018783073,59457,316231,328041
1631018783083,59436,316185,328018
1631018783093,59421,316195,328022
1631018783103,59421,316237,328004
1631018783113,59419,316209,328010
1631018783123,59414,316216,328029
1631018783133,59430,316223,328016
1631018783143,59425,316173,328027
1631018783153,59403,316233,328003
1631018783163,59415,316211,328033
1631018783173,59415,316198,327996
1631018783183,59406,316176,328031
1631018783193,59423,316210,328004
1631018783203,59417,316245,328036
1631018783213,59411,316219,327978
1631018783223,59428,316220,328023
1631018783233,59417,316247,327970
1631018783243,59427,316208,327984
1631018783253,59438,316245,328005
1631018783263,59450,316244,327970
1631018783273,59447,316256,327997
1631018783283,59462,316236,327988
1631018783293,59488,316298,327985
1631018783303,59506,316287,327989
1631018783313,59523,316297,327994
1631018783323,59548,316324,327974
1631018783333,59553,316308,327971
1631018783343,59563,316351,328023
1631018783353,59577,316388,327995
1631018783363,59591,316354,328014
1631018783373,59613,316352,328026
1631018783383,59656,316345,328042
1631018783393,59649,316355,328020
1631018783403,59680,316406,328030
1631018783413,59698,316397,327984
1631018783423,59708,316410,328019
1631018783433,59725,316426,328006
1631018783443,59743,316481,328026
1631018783453,59776,316459,328032
1631018783463,59781,316459,328038
1631018783473,59815,316459,328009
1631018783483,59833,316474,328021
1631018783493,59848,316517,328049
1631018783503,59872,316530,328009
1631018783513,59897,316498,328051
1631018783523,59921,316540,328036
1631018783533,59940,316564,328057
1631018783543,59977,316547,328033
1631018783553,60021,316566,328088
1631018783563,60042,316598,328083
1631018783573,60066,316584,328177
1631018783583,60107,316522,328219
1631018783593,60096,316510,328234
1631018783603,60090,316425,328294
1631018783613,60088,316488,328309
1631018783623,60071,316405,328261
1631018783633,60025,316418,328302
1631018783643,59973,316409,328324
1631018783653,59940,316382,328315
1631018783663,59883,316369,328296
1631018783673,59856,316358,328269
1631018783683,59831,316324,328277
1631018783693,59792,316295,328254
1631018783703,59759,316303,328252
1631018783713,59729,316293,328262
1631018783723,59722,316302,328257
1631018783733,59703,316296,328247
1631018783743,59682,316291,328227
1631018783753,59666,316292,328180
1631018783763,59642,316254,328204
1631018783773,59632,316268,328208
1631018783783,59622,316249,328176
1631018783793,59600,316239,328157
1631018783803,59601,316294,328164
1631018783813,59605,316263,328151
1631018783823,59597,316301,328176
1631018783833,59603,316290,328172
1631018783843,59581,316301,328161
1631018783853,59586,316269,328171
1631018783863,59588,316259,328146
1631018783873,59595,316228,328161
1631018783883,59579,316304,328149
1631018783893,59596,316257,328135
1631018783903,59587,316304,328127
1631018783913,59575,316275,328119
1631018783923,59576,316281,328142
1631018783933,59581,316293,328128
1631018783943,59573,316285,328150
1631018783953,59600,316298,328122
1631018783963,59598,316308,328087
1631018783973,59609,316344,328116
1631018783983,59605,316309,328109
1631018783993,59625,316354,328103
1631018784003,59636,316339,328067
1631018784013,59642,316368,328091
1631018784023,59657,316359,328100
1631018784033,59679,316381,328078
1631018784043,59684,316340,328102
1631018784053,59713,316393,328077
1631018784063,59723,316341,328096
1631018784073,59749,316408,328068
1631018784083,59760,316401,328053
1631018784093,59770,316399,328092
1631018784103,59806,316403,328109
1631018784113,59815,316409,328119
1631018784123,59839,316444,328085
1631018784133,59861,316435,328088
1631018784143,59877,316421,328105
1631018784153,59878,316471,328137
1631018784163,59899,316457,328103
1631018784173,59926,316528,328127
1631018784183,59944,316526,328100
1631018784193,59979,316533,328100
1631018784203,60001,316541,328084
1631018784213,60039,316571,328079
1631018784223,60048,316613,328120
1631018784233,60078,316601,328092
1631018784243,60087,316575,328096
1631018784253,60115,316588,328124
1631018784263,60155,316622,328123
1631018784273,60186,316639,328193
1631018784283,60241,316592,328187
1631018784293,60254,316601,328258
1631018784303,60273,316549,328322
1631018784313,60268,316532,328350
1631018784323,60253,316536,328372
1631018784333,60243,316491,328400
1631018784343,60204,316474,328398
1631018784353,60177,316456,328361
1631018784363,60141,316419,328420
1631018784373,60082,316414,328410
1631018784383,60065,316362,328405
1631018784393,60016,316331,328383
1631018784403,59973,316357,328387
1631018784413,59942,316353,328329
1631018784423,59913,316341,328302
1631018784433,59900,316323,328327
1631018784443,59857,316314,328323
1631018784453,59836,316303,328296
1631018784463,59808,316327,328312
1631018784473,59778,316289,328271
1631018784483,59749,316315,328277
1631018784493,59733,316271,328262
1631018784503,59713,316301,328254
1631018784513,59695,316255,328268
1631018784523,59708,316290,328248
1631018784533,59688,316258,328224
1631018784543,59692,316263,328210
1631018784553,59678,316274,328252
1631018784563,59679,316252,328219
1631018784573,59663,316309,328234
1631018784583,59663,316271,328192
1631018784593,59658,316285,328180
1631018784603,59651,316259,328178
1631018784613,59635,316281,328187
1631018784623,59628,316307,328188
1631018784633,59638,316274,328174
1631018784643,59638,316273,328161
1631018784653,59637,316274,328145
1631018784663,59631,316299,328142
1631018784673,59638,316266,328137
1631018784683,59636,316313,328156
1631018784693,59645,316287,328125
1631018784703,59642,316255,328137
1631018784713,59655,316308,328158
1631018784723,59662,316362,328116
1631018784733,59664,316360,328074
1631018784743,59682,316341,328123
1631018784753,59694,316345,328093
1631018784763,59690,316349,328081
1631018784773,59723,316409,328082
1631018784783,59732,316396,328102
1631018784793,59755,316406,328115
1631018784803,59764,316375,328095
1631018784813,59785,316382,328084
1631018784823,59783,316399,328072
1631018784833,59799,316408,328089
1631018784843,59827,316435,328054
1631018784853,59842,316418,328062
1631018784863,59853,316482,328073
1631018784873,59866,316466,328083
1631018784883,59896,316498,328103
1631018784893,59894,316515,328059
1631018784903,59907,316528,328063
1631018784913,59925,316605,328095
1631018784923,59973,316554,328074
1631018784933,59990,316548,328097
1631018784943,60016,316575,328110
1631018784953,60025,316602,328073
1631018784963,60052,316591,328098
1631018784973,60085,316593,328117
1631018784983,60112,316619,328093
1631018784993,60143,316623,328210
1631018785003,60185,316576,328219
1631018785013,60203,316555,328227
1631018785023,60192,316547,328288
1631018785033,60188,316512,328306
1631018785043,60165,316468,328308
1631018785053,60131,316438,328364
1631018785063,60087,316439,328351
1631018785073,60042,316370,328360
1631018785083,59994,316429,328353
1631018785093,59953,316360,328310
1631018785103,59914,316349,328310
1631018785113,59876,316299,328289
1631018785123,59824,316318,328272
1631018785133,59788,316286,328287
1631018785143,59757,316272,328258
1631018785153,59728,316284,328235
1631018785163,59714,316243,328217
1631018785173,59681,316246,328255
1631018785183,59674,316244,328189
1631018785193,59636,316287,328206
1631018785203,59613,316242,328205
1631018785213,59589,316195,328181
1631018785223,59576,316255,328158
1631018785233,59569,316226,328156
1631018785243,59547,316192,328165
1631018785253,59550,316228,328143
1631018785263,59524,316241,328150
1631018785273,59534,316201,328150
1631018785283,59519,316231,328089
1631018785293,59527,316203,328143
1631018785303,59508,316200,328130
1631018785313,59498,316199,328090
1631018785323,59503,316227,328097
1631018785333,59501,316213,328098
1631018785343,59477,316236,328104
1631018785353,59501,316184,328077
1631018785363,59491,316238,328094
1631018785373,59479,316238,328125
1631018785383,59481,316229,328041
1631018785393,59470,316246,328064
1631018785403,59486,316237,328065
1631018785413,59485,316240,328082
1631018785423,59490,316249,328050
1631018785433,59503,316244,328056
1631018785443,59504,316220,328047
1631018785453,59518,316254,328039
1631018785463,59518,316258,328048
1631018785473,59524,316282,328010
1631018785483,59552,316278,328001
1631018785493,59551,316288,328012
1631018785503,59568,316283,327995
1631018785513,59589,316353,328040
1631018785523,59596,316294,328031
1631018785533,59626,316350,328063
1631018785543,59623,316363,328040
1631018785553,59640,316373,328033
1631018785563,59652,316364,328046
1631018785573,59668,316381,328022
1631018785583,59677,316377,328057
1631018785593,59697,316413,328038
1631018785603,59719,316442,328012
1631018785613,59735,316419,328033
1631018785623,59749,316410,328054
1631018785633,59772,316475,328027
1631018785643,59799,316480,328030
1631018785653,59824,316458,328064
1631018785663,59850,316422,328045
1631018785673,59882,316469,328070
1631018785683,59906,316488,328134
1631018785693,59925,316418,328131
1631018785703,59941,316447,328204
1631018785713,59957,316391,328219
1631018785723,59947,316360,328273
1631018785733,59933,316356,328272
1631018785743,59903,316281,328284
1631018785753,59849,316259,328278
1631018785763,59809,316281,328295
1631018785773,59765,316243,328255
1631018785783,59716,316223,328264
1631018785793,59687,316236,328247
1631018785803,59653,316236,328227
1631018785813,59621,316246,328224
1631018785823,59587,316206,328218
1631018785833,59560,316154,328211
1631018785843,59529,316154,328168
1631018785853,59503,316151,328118
1631018785863,59476,316124,328158
1631018785873,59464,316193,328133
1631018785883,59452,316133,328139
1631018785893,59422,316118,328116
1631018785903,59397,316126,328120
1631018785913,59407,316141,328106
1631018785923,59389,316147,328102
1631018785933,59386,316090,328088
1631018785943,59381,316160,328091
1631018785953,59376,316116,328063
1631018785963,59369,316138,328064
1631018785973,59372,316106,328028
1631018785983,59386,316118,328082
1631018785993,59384,316115,328078
1631018786003,59364,316112,328047
1631018786013,59353,316111,328005
1631018786023,59341,316147,328024
1631018786033,59363,316115,328040
1631018786043,59347,316110,328034
1631018786053,59353,316093,328022
1631018786063,59347,316109,328003
1631018786073,59360,316084,328011
1631018786083,59352,316105,327988
1631018786093,59353,316117,328001
1631018786103,59357,316164,327966
1631018786113,59365,316145,327967
1631018786123,59365,316180,327979
1631018786133,59375,316143,327981
1631018786143,59398,316162,327955
1631018786153,59400,316122,327944
1631018786163,59414,316168,327925
1631018786173,59421,316190,327955
1631018786183,59450,316145,327945
1631018786193,59467,316159,327963
1631018786203,59471,316209,327970
1631018786213,59487,316197,327954
1631018786223,59497,316228,327942
1631018786233,59508,316233,327959
1631018786243,59503,316233,327969
1631018786253,59538,316220,327940
1631018786263,59549,316284,327938
1631018786273,59547,316262,327926
1631018786283,59559,316268,327940
1631018786293,59605,316278,327959
1631018786303,59609,316316,327942
1631018786313,59644,316309,327930
1631018786323,59664,316332,327964
1631018786333,59676,316355,327954
1631018786343,59707,316333,327947
1631018786353,59731,316335,327988
1631018786363,59748,316337,328000
1631018786373,59776,316334,328055
1631018786383,59803,316268,328091
1631018786393,59797,316336,328119
1631018786403,59795,316236,328140
1631018786413,59766,316228,328178
1631018786423,59729,316205,328182
1631018786433,59699,316123,328156
1631018786443,59641,316107,328139
1631018786453,59627,316112,328151
1631018786463,59577,316050,328165
1631018786473,59520,316085,328148
1631018786483,59485,316068,328112
1631018786493,59432,316040,328115
1631018786503,59407,316073,328071
1631018786513,59367,316033,328106
1631018786523,59337,315971,328055
1631018786533,59306,316006,328089
1631018786543,59281,315975,328029
1631018786553,59257,315989,328005
1631018786563,59230,315961,328000
1631018786573,59208,315896,327997
1631018786583,59170,315966,327984
1631018786593,59160,315955,327952
1631018786603,59155,315978,327945
1631018786613,59147,315969,327942
1631018786623,59141,315906,327956
1631018786633,59121,315963,327921
1631018786643,59135,315928,327941
1631018786653,59117,315920,327927
1631018786663,59128,315947,327901
1631018786673,59109,315912,327965
1631018786683,59117,315941,327932
1631018786693,59115,315926,327912
1631018786703,59106,315939,327908
1631018786713,59095,315932,327908
1631018786723,59095,315932,327907
1631018786733,59074,315931,327913
1631018786743,59088,315945,327868
1631018786753,59097,315947,327894
1631018786763,59105,315961,327891
1631018786773,59101,315993,327886
1631018786783,59100,315942,327861
1631018786793,59117,315915,327836
1631018786803,59120,316002,327858
1631018786813,59122,315977,327835
1631018786823,59126,315962,327818
1631018786833,59120,315976,327845
1631018786843,59164,315988,327846
1631018786853,59156,316000,327834
1631018786863,59180,316022,327826
1631018786873,59197,316005,327820
1631018786883,59212,316056,327848
1631018786893,59213,316003,327827
1631018786903,59221,316059,327805
1631018786913,59243,316075,327832
1631018786923,59250,316048,327816
1631018786933,59274,316067,327837
1631018786943,59303,316096,327793
1631018786953,59316,316099,327813
1631018786963,59332,316107,327809
1631018786973,59347,316138,327826
1631018786983,59366,316131,327851
1631018786993,59378,316144,327817
1631018787003,59397,316168,327820
1631018787013,59425,316180,327862
1631018787023,59457,316189,327860
1631018787033,59476,316207,327869
1631018787043,59506,316186,327909
1631018787053,59546,316182,327938
1631018787063,59555,316158,328003
1631018787073,59555,316109,328052
1631018787083,59536,316102,327973
1631018787093,59519,316084,328034
1631018787103,59492,316025,328050
1631018787113,59462,315987,328050
1631018787123,59401,315983,328060
1631018787133,59338,315974,328066
1631018787143,59301,315909,328019
1631018787153,59250,315948,328023
1631018787163,59196,315946,328037
1631018787173,59157,315882,328008
1631018787183,59132,315868,328011
1631018787193,59084,315843,328014
1631018787203,59056,315856,327964
1631018787213,59032,315844,327952
1631018787223,58982,315818,327963
1631018787233,58951,315816,327940
1631018787243,58918,315801,327892
1631018787253,58891,315835,327907
1631018787263,58863,315801,327872
1631018787273,58858,315778,327866
1631018787283,58832,315761,327885
1631018787293,58826,315754,327858
1631018787303,58800,315800,327843
1631018787313,58793,315770,327800
1631018787323,58784,315724,327805
1631018787333,58778,315737,327793
1631018787343,58781,315794,327796
1631018787353,58770,315780,327795
1631018787363,58775,315761,327761
1631018787373,58771,315754,327778
1631018787383,58756,315768,327792
1631018787393,58746,315736,327769
1631018787403,58739,315743,327785
1631018787413,58747,315741,327785
1631018787423,58762,315768,327766
1631018787433,58744,315741,327751
1631018787443,58748,315780,327732
1631018787453,58737,315751,327756
1631018787463,58748,315751,327744
1631018787473,58752,315803,327735
1631018787483,58762,315808,327761
1631018787493,58759,315808,327736
1631018787503,58771,315783,327741
1631018787513,58789,315808,327688
1631018787523,58805,315829,327687
1631018787533,58802,315839,327699
1631018787543,58828,315856,327733
1631018787553,58840,315890,327708
1631018787563,58852,315896,327697
1631018787573,58867,315870,327713
1631018787583,58869,315902,327740
1631018787593,58888,315895,327738
1631018787603,58907,315939,327685
1631018787613,58940,315930,327735
1631018787623,58928,315954,327747
1631018787633,58957,315935,327700
1631018787643,58989,315938,327750
1631018787653,58985,315966,327717
1631018787663,59016,315963,327711
1631018787673,59041,315998,327706
1631018787683,59062,316005,327712
1631018787693,59073,316052,327718
1631018787703,59112,316003,327746
1631018787713,59130,316039,327743
1631018787723,59158,316057,327751
1631018787733,59188,316037,327818
1631018787743,59211,316041,327832
1631018787753,59235,316014,327885
1631018787763,59241,315958,327915
1631018787773,59212,315952,327949
1631018787783,59206,315956,327954
1631018787793,59179,315877,327948
1631018787803,59132,315901,327955
1631018787813,59107,315856,327967
1631018787823,59050,315861,327970
1631018787833,59003,315883,327954
1631018787843,58968,315835,327939
1631018787853,58929,315839,327908
1631018787863,58891,315786,327929
1631018787873,58869,315764,327944
1631018787883,58839,315789,327888
1631018787893,58800,315781,327898
1631018787903,58778,315756,327903
1631018787913,58782,315752,327900
1631018787923,58749,315744,327881
1631018787933,58703,315760,327874
1631018787943,58697,315764,327818
1631018787953,58698,315734,327863
1631018787963,58682,315746,327833
1631018787973,58680,315716,327828
1631018787983,58675,315733,327828
1631018787993,58681,315708,327820
1631018788003,58683,315737,327813
1631018788013,58676,315715,327825
1631018788023,58672,315750,327832
1631018788033,58677,315712,327806
1631018788043,58672,315737,327806
1631018788053,58680,315730,327797
1631018788063,58669,315749,327797
1631018788073,58687,315763,327795
1631018788083,58684,315756,327809
1631018788093,58666,315745,327783
1631018788103,58689,315726,327781
1631018788113,58681,315772,327802
1631018788123,58688,315734,327787
1631018788133,58685,315799,327754
1631018788143,58699,315796,327749
1631018788153,58718,315840,327773
1631018788163,58734,315823,327783
1631018788173,58737,315815,327749
1631018788183,58745,315827,327772
1631018788193,58785,315847,327744
1631018788203,58784,315830,327770
1631018788213,58804,315860,327802
1631018788223,58825,315864,327782
1631018788233,58839,315851,327782
1631018788243,58864,315881,327760
1631018788253,58893,315905,327775
1631018788263,58906,315924,327807
1631018788273,58903,315877,327794
1631018788283,58930,315966,327789
1631018788293,58953,315943,327788
1631018788303,58971,315931,327794
1631018788313,58989,315954,327780
1631018788323,59011,315956,327793
1631018788333,59030,315982,327804
1631018788343,59058,316047,327778
1631018788353,59072,316006,327829
1631018788363,59078,316022,327851
1631018788373,59100,316029,327830
1631018788383,59124,316093,327846
1631018788393,59159,316085,327823
1631018788403,59191,316096,327825
1631018788413,59211,316121,327840
1631018788423,59238,316101,327869
1631018788433,59272,316095,327882
1631018788443,59307,316090,327968
1631018788453,59315,316086,327957
1631018788463,59336,316057,328032
1631018788473,59343,316010,328066
1631018788483,59335,315988,328105
1631018788493,59312,316015,328110
1631018788503,59273,315954,328112
1631018788513,59234,315906,328103
1631018788523,59180,315921,328125
1631018788533,59143,315911,328106
1631018788543,59108,315882,328090
1631018788553,59079,315909,328076
1631018788563,59051,315858,328091
1631018788573,59009,315861,328056
1631018788583,58980,315827,328069
1631018788593,58971,315853,328032
1631018788603,58962,315852,328045
1631018788613,58921,315824,328010
1631018788623,58916,315802,328019
1631018788633,58897,315819,328031
1631018788643,58880,315822,327973
1631018788653,58858,315793,327962
1631018788663,58872,315767,327941
1631018788673,58860,315834,327939
1631018788683,58852,315802,327970
1631018788693,58858,315840,327969
1631018788703,58850,315823,327955
1631018788713,58851,315796,327954
1631018788723,58864,315862,327926
1631018788733,58867,315825,327941
1631018788743,58881,315800,327980
1631018788753,58855,315856,327965
1631018788763,58849,315800,327941
1631018788773,58883,315819,327959
1631018788783,58875,315835,327964
1631018788793,58871,315848,327930
1631018788803,58886,315858,327922
1631018788813,58899,315871,327931
1631018788823,58907,315824,327942
1631018788833,58910,315837,327919
1631018788843,58912,315840,327905
1631018788853,58938,315874,327933
1631018788863,58940,315888,327945
1631018788873,58951,315878,327892
1631018788883,58972,315906,327918
1631018788893,58998,315920,327944
1631018788903,58996,315922,327905
1631018788913,59038,315928,327951
1631018788923,59040,315930,327954
1631018788933,59082,315953,327944
1631018788943,59087,315964,327930
1631018788953,59097,315972,327919
1631018788963,59133,316010,327933
1631018788973,59151,315982,327923
1631018788983,59167,316042,327994
1631018788993,59180,316041,327930
1631018789003,59197,316024,327947
1631018789013,59222,316002,328005
1631018789023,59251,316089,327982
1631018789033,59261,316087,327944
1631018789043,59291,316158,327986
1631018789053,59312,316149,327981
1631018789063,59338,316160,327941
1631018789073,59344,316127,328036
1631018789083,59374,316171,327968
1631018789093,59405,316182,327996
1631018789103,59419,316181,327990
1631018789113,59450,316202,327991
1631018789123,59498,316207,328007
1631018789133,59511,316256,328045
1631018789143,59564,316240,328040
1631018789153,59581,316198,328127
