timestamp,green,ir,red
1631019913740,28253,57624,57649
1631019913750,28244,90406,90420
1631019913760,28236,123163,123203
1631019913770,28228,155942,155796
1631019913780,28228,188542,188402
1631019913790,28221,218060,199601
1631019913800,28212,218041,199587
1631019913810,28210,218018,199571
1631019913820,28210,218022,199577
1631019913830,28199,218011,199566
1631019913840,28197,217999,199568
1631019913850,28198,218025,199562
1631019913860,28184,218047,199546
1631019913870,28189,218019,199541
1631019913880,28189,218018,199544
1631019913890,28197,217991,199544
1631019913900,28193,217964,199547
1631019913910,28193,218008,199519
1631019913920,28201,217983,199510
1631019913930,28191,217946,199510
1631019913940,28193,217972,199494
1631019913950,28195,217925,199495
1631019913960,28192,217941,199480
1631019913970,28191,217943,199474
1631019913980,28180,217943,199474
1631019913990,28187,217932,199492
1631019914000,28183,217901,199483
1631019914010,28194,217927,199477
1631019914020,28189,217942,199476
1631019914030,28181,217906,199459
1631019914040,28176,217931,199469
1631019914050,28193,217918,199467
1631019914060,28198,217957,199433
1631019914070,28195,217949,199485
1631019914080,28202,217925,199453
1631019914090,28199,217919,199431
1631019914100,28196,217889,199441
1631019914110,28190,217873,199412
1631019914120,28189,217876,199410
1631019914130,28197,217882,199408
1631019914140,28201,217881,199406
1631019914150,28200,217913,199399
1631019914160,28199,217921,199403
1631019914170,28204,217885,199403
1631019914180,28198,217956,199403
1631019914190,28209,217928,199401
1631019914200,28206,217897,199404
1631019914210,28210,217902,199394
1631019914220,28225,217907,199402
1631019914230,28236,217921,199385
1631019914240,28246,217885,199385
1631019914250,28261,217868,199361
1631019914260,28277,217879,199352
1631019914270,28281,217857,199361
1631019914280,28296,217854,199374
1631019914290,28288,217871,199402
1631019914300,28291,217896,199402
1631019914310,28291,217870,199399
1631019914320,28279,217848,199362
1631019914330,28275,217821,199327
1631019914340,28271,217764,199314
1631019914350,28264,217775,199284
1631019914360,28253,217740,199275
1631019914370,28247,217738,199234
1631019914380,28245,217727,199256
1631019914390,28242,217689,199255
1631019914400,28236,217726,199254
1631019914410,28244,217718,199222
1631019914420,28229,217732,199243
1631019914430,28226,217739,199216
1631019914440,28220,217698,199233
1631019914450,28207,217692,199229
1631019914460,28211,217652,199213
1631019914470,28213,217670,199188
1631019914480,28212,217643,199182
1631019914490,28212,217666,199153
1631019914500,28214,217639,199177
1631019914510,28213,217645,199127
1631019914520,28213,217643,199151
1631019914530,28214,217610,199130
1631019914540,28203,217624,199125
1631019914550,28206,217595,199095
1631019914560,28207,217563,199098
1631019914570,28212,217616,199097
1631019914580,28206,217575,199095
1631019914590,28205,217608,199083
1631019914600,28198,217567,199076
1631019914610,28205,217600,199079
1631019914620,28202,217558,199085
1631019914630,28198,217579,199063
1631019914640,28206,217559,199057
1631019914650,28199,217559,199066
1631019914660,28203,217533,199049
1631019914670,28208,217545,199048
1631019914680,28205,217560,199059
1631019914690,28207,217546,199038
1631019914700,28208,217564,199056
1631019914710,28209,217548,199074
1631019914720,28216,217579,199081
1631019914730,28214,217565,199050
1631019914740,28208,217537,199077
1631019914750,28213,217512,199048
1631019914760,28209,217548,199059
1631019914770,28221,217535,199030
1631019914780,28209,217533,199044
1631019914790,28220,217580,199057
1631019914800,28221,217556,199027
1631019914810,28223,217557,199024
1631019914820,28226,217552,199034
1631019914830,28237,217544,199046
1631019914840,28249,217572,199016
1631019914850,28265,217528,199019
1631019914860,28280,217521,199029
1631019914870,28305,217527,199044
1631019914880,28304,217525,199054
1631019914890,28315,217511,199026
1631019914900,28317,217486,199023
1631019914910,28321,217423,198972
1631019914920,28306,217398,198999
1631019914930,28304,217415,198963
1631019914940,28301,217369,198940
1631019914950,28288,217348,198946
1631019914960,28283,217358,198922
1631019914970,28278,217348,198948
1631019914980,28266,217308,198935
1631019914990,28259,217320,198907
1631019915000,28256,217311,198887
1631019915010,28248,217320,198885
1631019915020,28238,217278,198869
1631019915030,28244,217281,198851
1631019915040,28235,217255,198853
1631019915050,28227,217277,198840
1631019915060,28218,217229,198857
1631019915070,28209,217235,198874
1631019915080,28214,217240,198845
1631019915090,28205,217229,198837
1631019915100,28202,217226,198844
1631019915110,28211,217256,198853
1631019915120,28203,217252,198874
1631019915130,28202,217257,198868
1631019915140,28206,217268,198851
1631019915150,28206,217260,198854
1631019915160,28206,217221,198851
1631019915170,28202,217256,198866
1631019915180,28202,217266,198851
1631019915190,28207,217240,198870
1631019915200,28204,217217,198834
1631019915210,28204,217239,198852
1631019915220,28202,217217,198855
1631019915230,28199,217265,198846
1631019915240,28197,217245,198865
1631019915250,28194,217222,198841
1631019915260,28208,217267,198857
1631019915270,28198,217269,198870
1631019915280,28192,217249,198882
1631019915290,28196,217254,198846
1631019915300,28194,217251,198844
1631019915310,28197,217238,198858
1631019915320,28200,217220,198854
1631019915330,28197,217242,198827
1631019915340,28200,217214,198834
1631019915350,28194,217248,198836
1631019915360,28198,217229,198814
1631019915370,28204,217222,198840
1631019915380,28210,217229,198834
1631019915390,28204,217231,198855
1631019915400,28202,217217,198847
1631019915410,28210,217246,198859
1631019915420,28209,217241,198843
1631019915430,28211,217246,198828
1631019915440,28211,217265,198844
1631019915450,28223,217259,198828
1631019915460,28238,217231,198858
1631019915470,28261,217219,198833
1631019915480,28275,217239,198830
1631019915490,28287,217245,198854
1631019915500,28291,217191,198816
1631019915510,28295,217191,198803
1631019915520,28305,217144,198816
1631019915530,28299,217123,198790
1631019915540,28290,217109,198774
1631019915550,28292,217092,198762
1631019915560,28276,217061,198742
1631019915570,28279,217041,198732
1631019915580,28254,217045,198732
1631019915590,28257,217034,198735
1631019915600,28245,217005,198720
1631019915610,28240,217040,198719
1631019915620,28229,217042,198703
1631019915630,28226,216973,198687
1631019915640,28227,216983,198682
1631019915650,28220,216995,198673
1631019915660,28208,216998,198691
1631019915670,28201,216967,198676
1631019915680,28203,216988,198660
1631019915690,28194,217000,198668
1631019915700,28196,216954,198674
1631019915710,28183,216987,198686
1631019915720,28177,216971,198679
1631019915730,28182,216991,198653
1631019915740,28181,216987,198656
1631019915750,28168,216984,198654
1631019915760,28180,216948,198638
1631019915770,28167,216966,198617
1631019915780,28177,216957,198649
1631019915790,28171,216947,198614
1631019915800,28170,216961,198615
1631019915810,28168,216951,198616
1631019915820,28171,216947,198608
1631019915830,28174,216924,198589
1631019915840,28164,216942,198609
1631019915850,28164,216908,198592
1631019915860,28165,216921,198600
1631019915870,28163,216910,198582
1631019915880,28155,216951,198593
1631019915890,28167,216908,198598
1631019915900,28167,216946,198592
1631019915910,28165,216917,198571
1631019915920,28161,216912,198598
1631019915930,28161,216939,198577
1631019915940,28169,216954,198573
1631019915950,28169,216942,198563
1631019915960,28169,216965,198597
1631019915970,28172,216934,198576
1631019915980,28166,216909,198564
1631019915990,28170,216960,198575
1631019916000,28174,216961,198571
1631019916010,28170,216950,198578
1631019916020,28176,216980,198571
1631019916030,28182,216964,198580
1631019916040,28178,216950,198596
1631019916050,28182,217003,198590
1631019916060,28184,217003,198615
1631019916070,28198,216999,198590
1631019916080,28205,217027,198604
1631019916090,28225,217001,198613
1631019916100,28238,217022,198605
1631019916110,28256,217036,198613
1631019916120,28263,216993,198604
1631019916130,28273,217025,198608
1631019916140,28272,216997,198615
1631019916150,28281,216951,198610
1631019916160,28273,216938,198590
1631019916170,28276,216903,198563
1631019916180,28268,216897,198556
1631019916190,28263,216891,198555
1631019916200,28247,216860,198521
1631019916210,28251,216878,198536
1631019916220,28245,216891,198520
1631019916230,28230,216874,198545
1631019916240,28222,216859,198558
1631019916250,28212,216856,198506
1631019916260,28212,216874,198491
1631019916270,28204,216833,198494
1631019916280,28203,216829,198489
1631019916290,28202,216813,198490
1631019916300,28193,216807,198483
1631019916310,28188,216838,198511
1631019916320,28185,216853,198495
1631019916330,28183,216833,198506
1631019916340,28176,216828,198514
1631019916350,28176,216883,198512
1631019916360,28184,216879,198497
1631019916370,28185,216875,198477
1631019916380,28179,216844,198494
1631019916390,28176,216820,198493
1631019916400,28187,216849,198502
1631019916410,28183,216821,198462
1631019916420,28184,216848,198475
1631019916430,28184,216821,198462
1631019916440,28185,216781,198478
1631019916450,28180,216805,198464
1631019916460,28182,216819,198453
1631019916470,28173,216809,198431
1631019916480,28178,216802,198409
1631019916490,28167,216794,198434
1631019916500,28171,216805,198414
1631019916510,28175,216783,198397
1631019916520,28163,216797,198403
1631019916530,28175,216791,198383
1631019916540,28174,216813,198388
1631019916550,28175,216773,198380
1631019916560,28179,216780,198368
1631019916570,28184,216777,198392
1631019916580,28177,216764,198363
1631019916590,28181,216776,198378
1631019916600,28181,216778,198366
1631019916610,28185,216768,198362
1631019916620,28186,216762,198368
1631019916630,28190,216769,198335
1631019916640,28190,216757,198333
1631019916650,28194,216744,198329
1631019916660,28193,216781,198338
1631019916670,28197,216798,198320
1631019916680,28195,216796,198327
1631019916690,28202,216784,198346
1631019916700,28199,216801,198337
1631019916710,28207,216804,198333
1631019916720,28223,216773,198306
1631019916730,28242,216813,198313
1631019916740,28255,216781,198317
1631019916750,28278,216756,198302
1631019916760,28290,216790,198303
1631019916770,28299,216765,198287
1631019916780,28303,216728,198273
1631019916790,28307,216657,198261
1631019916800,28302,216655,198247
1631019916810,28299,216674,198247
1631019916820,28292,216628,198217
1631019916830,28286,216650,198194
1631019916840,28284,216612,198214
1631019916850,28280,216585,198169
1631019916860,28280,216616,198161
1631019916870,28275,216547,198182
1631019916880,28269,216585,198154
1631019916890,28263,216546,198161
1631019916900,28261,216544,198174
1631019916910,28256,216564,198160
1631019916920,28257,216546,198143
1631019916930,28250,216528,198124
1631019916940,28243,216553,198131
1631019916950,28244,216525,198126
1631019916960,28242,216517,198143
1631019916970,28243,216553,198117
1631019916980,28248,216519,198134
1631019916990,28248,216532,198140
1631019917000,28256,216577,198115
1631019917010,28248,216554,198132
1631019917020,28253,216568,198130
1631019917030,28252,216531,198103
1631019917040,28259,216524,198120
1631019917050,28264,216535,198073
1631019917060,28262,216523,198079
1631019917070,28268,216499,198083
1631019917080,28268,216499,198059
1631019917090,28273,216501,198082
1631019917100,28274,216524,198091
1631019917110,28273,216506,198090
1631019917120,28278,216506,198077
1631019917130,28277,216535,198112
1631019917140,28286,216541,198090
1631019917150,28291,216519,198094
1631019917160,28290,216507,198098
1631019917170,28298,216540,198078
1631019917180,28302,216546,198087
1631019917190,28294,216537,198085
1631019917200,28305,216518,198079
1631019917210,28306,216542,198091
1631019917220,28314,216537,198110
1631019917230,28317,216556,198091
1631019917240,28319,216575,198103
1631019917250,28326,216547,198095
1631019917260,28329,216582,198089
1631019917270,28331,216546,198122
1631019917280,28337,216566,198121
1631019917290,28346,216572,198094
1631019917300,28340,216526,198084
1631019917310,28349,216574,198113
1631019917320,28352,216613,198105
1631019917330,28353,216599,198096
1631019917340,28369,216614,198118
1631019917350,28368,216583,198112
1631019917360,28380,216606,198130
1631019917370,28385,216612,198107
1631019917380,28391,216627,198135
1631019917390,28411,216634,198115
1631019917400,28423,216647,198099
1631019917410,28451,216608,198102
1631019917420,28470,216579,198072
1631019917430,28484,216598,198083
1631019917440,28489,216582,198068
1631019917450,28507,216564,198058
1631019917460,28507,216540,198052
1631019917470,28516,216517,198023
1631019917480,28520,216510,197990
1631019917490,28524,216479,197993
1631019917500,28506,216469,198013
1631019917510,28504,216453,197994
1631019917520,28509,216481,197994
1631019917530,28500,216452,198009
1631019917540,28498,216459,197999
1631019917550,28497,216447,197974
1631019917560,28492,216436,197984
1631019917570,28499,216454,197981
1631019917580,28493,216439,197948
1631019917590,28498,216410,197960
1631019917600,28496,216446,197974
1631019917610,28493,216384,197926
1631019917620,28492,216409,197931
1631019917630,28496,216418,197944
1631019917640,28493,216406,197932
1631019917650,28506,216403,197933
1631019917660,28510,216443,197950
1631019917670,28513,216427,197932
1631019917680,28511,216438,197921
1631019917690,28524,216410,197922
1631019917700,28518,216458,197920
1631019917710,28529,216427,197914
1631019917720,28525,216434,197918
1631019917730,28531,216445,197880
1631019917740,28530,216390,197892
1631019917750,28542,216418,197887
1631019917760,28544,216430,197892
1631019917770,28545,216431,197893
1631019917780,28551,216418,197889
1631019917790,28553,216440,197899
1631019917800,28552,216409,197909
1631019917810,28568,216448,197915
1631019917820,28579,216448,198005
1631019917830,28587,216462,198055
1631019917840,28598,216467,198082
1631019917850,28606,216475,198068
1631019917860,28607,216517,198049
1631019917870,28611,216517,198047
1631019917880,28618,216500,198060
1631019917890,28622,216486,198029
1631019917900,28622,216511,198043
1631019917910,28624,216513,197994
1631019917920,28630,216557,197970
1631019917930,28632,216521,197979
1631019917940,28635,216529,197961
1631019917950,28639,216547,197925
1631019917960,28639,216521,197921
1631019917970,28643,216537,197888
1631019917980,28652,216530,197885
1631019917990,28654,216515,197906
1631019918000,28651,216525,197877
1631019918010,28653,216530,197850
1631019918020,28662,216535,197806
1631019918030,28671,216514,197812
1631019918040,28684,216512,197781
1631019918050,28699,216510,197741
1631019918060,28717,216511,197748
1631019918070,28743,216510,197730
1631019918080,28762,216485,197700
1631019918090,28777,216493,197707
1631019918100,28783,216463,197713
1631019918110,28793,216414,197686
1631019918120,28799,216362,197669
1631019918130,28801,216356,197668
1631019918140,28800,216320,197638
1631019918150,28791,216328,197616
1631019918160,28793,216304,197598
1631019918170,28787,216298,197622
1631019918180,28788,216266,197676
1631019918190,28795,216257,197674
1631019918200,28790,216279,197664
1631019918210,28792,216211,197663
1631019918220,28791,216216,197635
1631019918230,28790,216251,197607
1631019918240,28791,216226,197591
1631019918250,28795,216198,197580
1631019918260,28787,216197,197568
1631019918270,28791,216201,197558
1631019918280,28781,216198,197557
1631019918290,28791,216165,197543
1631019918300,28784,216221,197528
1631019918310,28793,216180,197526
1631019918320,28791,216222,197513
1631019918330,28803,216187,197531
1631019918340,28796,216148,197506
1631019918350,28803,216161,197495
1631019918360,28800,216148,197478
1631019918370,28798,216164,197484
1631019918380,28803,216184,197464
1631019918390,28807,216174,197482
1631019918400,28813,216185,197460
1631019918410,28816,216149,197479
1631019918420,28817,216167,197450
1631019918430,28816,216166,197448
1631019918440,28819,216168,197439
1631019918450,28825,216194,197438
1631019918460,28818,216144,197456
1631019918470,28823,216152,197421
1631019918480,28818,216163,197448
1631019918490,28831,216160,197426
1631019918500,28837,216161,197472
1631019918510,28824,216174,197414
1631019918520,28842,216170,197427
1631019918530,28839,216147,197433
1631019918540,28849,216174,197443
1631019918550,28851,216177,197444
1631019918560,28854,216201,197434
1631019918570,28853,216185,197416
1631019918580,28865,216188,197441
1631019918590,28863,216214,197419
1631019918600,28864,216189,197404
1631019918610,28883,216198,197434
1631019918620,28877,216245,197431
1631019918630,28877,216269,197427
1631019918640,28877,216242,197449
1631019918650,28884,216254,197445
1631019918660,28892,216268,197427
1631019918670,28899,216245,197432
1631019918680,28904,216262,197436
1631019918690,28904,216238,197424
1631019918700,28923,216253,197439
1631019918710,28947,216263,197472
1631019918720,28962,216273,197455
1631019918730,28982,216272,197454
1631019918740,29002,216254,197483
1631019918750,29014,216271,197445
1631019918760,29031,216234,197437
1631019918770,29032,216222,197425
1631019918780,29033,216206,197402
1631019918790,29034,216181,197399
1631019918800,29037,216152,197390
1631019918810,29039,216142,197391
1631019918820,29040,216141,197394
1631019918830,29025,216116,197362
1631019918840,29037,216170,197378
1631019918850,29026,216116,197376
1631019918860,29024,216144,197372
1631019918870,29027,216113,197361
1631019918880,29024,216102,197339
1631019918890,29031,216088,197321
1631019918900,29032,216097,197278
1631019918910,29028,216113,197325
1631019918920,29033,216089,197318
1631019918930,29029,216117,197337
1631019918940,29021,216128,197348
1631019918950,29027,216103,197356
1631019918960,29029,216128,197360
1631019918970,29030,216088,197340
1631019918980,29036,216074,197346
1631019918990,29033,216088,197347
1631019919000,29047,216104,197334
1631019919010,29050,216077,197302
1631019919020,29042,216105,197292
1631019919030,29050,216079,197297
1631019919040,29053,216073,197296
1631019919050,29049,216087,197248
1631019919060,29057,216031,197270
1631019919070,29059,216071,197266
1631019919080,29059,216019,197277
1631019919090,29064,216057,197269
1631019919100,29057,216043,197259
1631019919110,29061,216032,197244
1631019919120,29069,216042,197257
1631019919130,29066,216042,197222
1631019919140,29081,216016,197230
1631019919150,29071,216031,197252
1631019919160,29080,216041,197266
1631019919170,29075,216054,197261
1631019919180,29080,216020,197217
1631019919190,29082,216044,197248
1631019919200,29085,216031,197206
1631019919210,29084,216058,197226
1631019919220,29093,216056,197226
1631019919230,29092,216047,197227
1631019919240,29099,216047,197244
1631019919250,29101,216038,197237
1631019919260,29095,216053,197221
1631019919270,29103,216064,197201
1631019919280,29112,216066,197215
1631019919290,29106,216025,197222
1631019919300,29105,216073,197227
1631019919310,29117,216075,197217
1631019919320,29116,216051,197230
1631019919330,29113,216068,197225
1631019919340,29143,216088,197230
1631019919350,29157,216058,197223
1631019919360,29173,216091,197231
1631019919370,29190,216069,197204
1631019919380,29217,216045,197216
1631019919390,29223,216054,197191
1631019919400,29238,215999,197198
1631019919410,29242,216015,197215
1631019919420,29239,216001,197168
1631019919430,29246,215959,197169
1631019919440,29238,215966,197133
1631019919450,29239,215921,197112
1631019919460,29245,215899,197133
1631019919470,29226,215896,197117
1631019919480,29222,215924,197098
1631019919490,29226,215893,197104
1631019919500,29216,215919,197115
1631019919510,29219,215877,197101
1631019919520,29214,215853,197094
1631019919530,29216,215918,197095
1631019919540,29218,215857,197096
1631019919550,29219,215837,197095
1631019919560,29210,215869,197084
1631019919570,29214,215843,197077
1631019919580,29209,215864,197066
1631019919590,29218,215882,197049
1631019919600,29220,215869,197064
1631019919610,29230,215864,197071
1631019919620,29229,215863,197061
1631019919630,29230,215871,197080
1631019919640,29240,215872,197048
1631019919650,29233,215883,197060
1631019919660,29237,215853,197029
1631019919670,29241,215814,197044
1631019919680,29237,215834,197023
1631019919690,29240,215785,197015
1631019919700,29242,215816,196996
1631019919710,29236,215829,196985
1631019919720,29244,215806,196992
1631019919730,29247,215793,196977
1631019919740,29262,215792,196977
1631019919750,29249,215775,196970
1631019919760,29249,215760,196953
1631019919770,29249,215774,196974
1631019919780,29256,215777,196935
1631019919790,29256,215759,196938
1631019919800,29262,215753,196942
1631019919810,29261,215723,196940
1631019919820,29252,215763,196937
1631019919830,29262,215732,196916
1631019919840,29270,215732,196912
1631019919850,29267,215716,196891
1631019919860,29272,215721,196885
1631019919870,29273,215735,196885
1631019919880,29273,215735,196866
1631019919890,29284,215729,196859
1631019919900,29282,215718,196906
1631019919910,29282,215726,196861
1631019919920,29291,215711,196858
1631019919930,29290,215720,196884
1631019919940,29297,215716,196875
1631019919950,29296,215739,196870
1631019919960,29302,215688,196850
1631019919970,29311,215717,196856
1631019919980,29320,215658,196847
1631019919990,29331,215694,196845
1631019920000,29357,215643,196803
1631019920010,29370,215644,196800
1631019920020,29385,215590,196774
1631019920030,29391,215529,196715
1631019920040,29395,215485,196722
1631019920050,29399,215470,196690
1631019920060,29398,215427,196660
1631019920070,29398,215394,196612
1631019920080,29395,215335,196554
1631019920090,29393,215340,196546
1631019920100,29391,215326,196555
1631019920110,29382,215296,196554
1631019920120,29384,215291,196546
1631019920130,29383,215282,196529
1631019920140,29377,215306,196555
1631019920150,29378,215282,196529
1631019920160,29370,215232,196505
1631019920170,29376,215253,196512
1631019920180,29370,215251,196492
1631019920190,29372,215228,196515
1631019920200,29369,215209,196473
1631019920210,29367,215213,196467
1631019920220,29361,215233,196479
1631019920230,29370,215221,196505
1631019920240,29371,215234,196514
1631019920250,29366,215220,196515
1631019920260,29372,215218,196502
1631019920270,29384,215258,196497
1631019920280,29376,215235,196512
1631019920290,29373,215249,196514
1631019920300,29378,215187,196492
1631019920310,29377,215225,196450
1631019920320,29384,215173,196457
1631019920330,29386,215176,196443
1631019920340,29380,215166,196445
1631019920350,29382,215171,196437
1631019920360,29378,215167,196448
1631019920370,29384,215191,196446
1631019920380,29384,215165,196429
1631019920390,29384,215136,196430
1631019920400,29383,215113,196422
1631019920410,29386,215145,196397
1631019920420,29395,215125,196390
1631019920430,29383,215104,196401
1631019920440,29386,215127,196401
1631019920450,29385,215115,196415
1631019920460,29394,215115,196424
1631019920470,29390,215125,196429
1631019920480,29395,215150,196400
1631019920490,29392,215170,196388
1631019920500,29396,215115,196384
1631019920510,29397,215087,196377
1631019920520,29397,215107,196377
1631019920530,29403,215094,196355
1631019920540,29399,215123,196373
1631019920550,29401,215122,196368
1631019920560,29408,215123,196394
1631019920570,29405,215145,196380
1631019920580,29415,215139,196400
1631019920590,29417,215098,196381
1631019920600,29428,215111,196385
1631019920610,29441,215094,196377
1631019920620,29471,215092,196365
1631019920630,29487,215116,196377
1631019920640,29498,215120,196391
1631019920650,29507,215109,196369
1631019920660,29514,215109,196370
1631019920670,29517,215085,196324
1631019920680,29514,215040,196310
1631019920690,29506,214970,196286
1631019920700,29511,214990,196268
1631019920710,29503,214946,196255
1631019920720,29495,214944,196238
1631019920730,29490,214939,196224
1631019920740,29487,214901,196225
1631019920750,29465,214910,196230
1631019920760,29466,214900,196242
1631019920770,29461,214907,196218
1631019920780,29450,214881,196187
1631019920790,29453,214854,196187
1631019920800,29451,214848,196163
1631019920810,29437,214809,196180
1631019920820,29435,214849,196169
1631019920830,29428,214826,196166
1631019920840,29419,214813,196178
1631019920850,29418,214853,196166
1631019920860,29418,214828,196179
1631019920870,29423,214848,196175
1631019920880,29420,214825,196132
1631019920890,29418,214836,196149
1631019920900,29414,214820,196143
1631019920910,29419,214794,196133
1631019920920,29424,214812,196092
1631019920930,29415,214767,196096
1631019920940,29416,214762,196117
1631019920950,29413,214774,196101
1631019920960,29410,214779,196111
1631019920970,29416,214760,196120
1631019920980,29410,214790,196091
1631019920990,29411,214776,196110
1631019921000,29414,214754,196109
1631019921010,29408,214784,196079
1631019921020,29408,214790,196079
1631019921030,29411,214766,196104
1631019921040,29402,214761,196097
1631019921050,29400,214756,196090
1631019921060,29399,214754,196076
1631019921070,29403,214779,196073
1631019921080,29403,214730,196083
1631019921090,29406,214744,196064
1631019921100,29406,214748,196080
1631019921110,29401,214740,196082
1631019921120,29405,214769,196040
1631019921130,29402,214718,196053
1631019921140,29400,214751,196047
1631019921150,29400,214727,196053
1631019921160,29405,214751,196050
1631019921170,29406,214731,196040
1631019921180,29412,214745,196041
1631019921190,29408,214756,196057
1631019921200,29397,214729,196050
1631019921210,29415,214760,196053
1631019921220,29422,214775,196054
1631019921230,29440,214786,196064
1631019921240,29449,214755,196075
1631019921250,29473,214797,196074
1631019921260,29491,214796,196076
1631019921270,29495,214763,196053
1631019921280,29498,214755,196058
1631019921290,29501,214731,196050
1631019921300,29493,214704,196036
1631019921310,29488,214668,196007
1631019921320,29481,214660,195953
1631019921330,29474,214621,195977
1631019921340,29469,214588,195960
1631019921350,29461,214582,195961
1631019921360,29444,214590,195944
1631019921370,29439,214576,195973
1631019921380,29427,214561,195969
1631019921390,29426,214549,195932
1631019921400,29407,214537,195950
1631019921410,29411,214532,195917
1631019921420,29408,214519,195898
1631019921430,29405,214508,195908
1631019921440,29379,214509,195931
1631019921450,29382,214518,195916
1631019921460,29375,214503,195905
1631019921470,29368,214523,195903
1631019921480,29366,214504,195914
1631019921490,29368,214518,195921
1631019921500,29365,214526,195926
1631019921510,29365,214495,195928
1631019921520,29364,214496,195902
1631019921530,29359,214496,195907
1631019921540,29356,214501,195891
1631019921550,29356,214480,195878
1631019921560,29360,214478,195868
1631019921570,29358,214502,195869
1631019921580,29353,214446,195866
1631019921590,29347,214460,195884
1631019921600,29338,214462,195882
1631019921610,29341,214442,195873
1631019921620,29338,214446,195872
1631019921630,29339,214467,195882
1631019921640,29338,214457,195866
1631019921650,29338,214399,195842
1631019921660,29331,214471,195864
1631019921670,29330,214433,195864
1631019921680,29340,214436,195843
1631019921690,29339,214452,195864
1631019921700,29340,214465,195876
1631019921710,29337,214450,195893
1631019921720,29330,214433,195880
1631019921730,29329,214470,195866
1631019921740,29323,214441,195840
1631019921750,29330,214442,195833
1631019921760,29331,214435,195838
1631019921770,29333,214430,195845
1631019921780,29330,214403,195856
1631019921790,29331,214453,195818
1631019921800,29333,214417,195830
1631019921810,29332,214468,195836
1631019921820,29339,214459,195844
1631019921830,29338,214479,195851
1631019921840,29347,214463,195872
1631019921850,29363,214448,195860
1631019921860,29376,214472,195839
1631019921870,29390,214433,195842
1631019921880,29401,214462,195826
1631019921890,29414,214426,195825
1631019921900,29417,214394,195834
1631019921910,29406,214355,195821
1631019921920,29409,214344,195787
1631019921930,29399,214346,195762
1631019921940,29399,214356,195746
1631019921950,29390,214312,195749
1631019921960,29382,214288,195749
1631019921970,29369,214293,195745
1631019921980,29366,214293,195730
1631019921990,29355,214285,195741
1631019922000,29351,214242,195733
1631019922010,29342,214255,195727
1631019922020,29340,214262,195709
1631019922030,29342,214214,195735
1631019922040,29334,214232,195689
1631019922050,29330,214181,195706
1631019922060,29316,214189,195691
1631019922070,29314,214229,195708
1631019922080,29312,214201,195696
1631019922090,29314,214217,195710
1631019922100,29312,214183,195722
1631019922110,29310,214214,195727
1631019922120,29305,214238,195712
1631019922130,29312,214231,195722
1631019922140,29316,214199,195746
1631019922150,29310,214187,195708
1631019922160,29316,214226,195725
1631019922170,29320,214169,195686
1631019922180,29305,214196,195693
1631019922190,29309,214155,195679
1631019922200,29310,214180,195713
1631019922210,29311,214169,195702
1631019922220,29306,214159,195722
1631019922230,29300,214171,195704
1631019922240,29303,214176,195705
1631019922250,29315,214192,195671
1631019922260,29303,214190,195706
1631019922270,29306,214175,195718
1631019922280,29311,214183,195714
1631019922290,29311,214189,195726
1631019922300,29311,214199,195728
1631019922310,29310,214203,195730
1631019922320,29318,214218,195718
1631019922330,29317,214188,195712
1631019922340,29320,214166,195738
1631019922350,29323,214181,195724
1631019922360,29326,214191,195738
1631019922370,29329,214187,195728
1631019922380,29323,214202,195734
1631019922390,29321,214200,195740
1631019922400,29334,214210,195746
1631019922410,29335,214222,195745
1631019922420,29337,214199,195730
1631019922430,29339,214203,195741
1631019922440,29348,214236,195723
1631019922450,29348,214193,195762
1631019922460,29369,214225,195748
1631019922470,29390,214193,195739
1631019922480,29404,214199,195722
1631019922490,29432,214212,195744
1631019922500,29436,214191,195715
1631019922510,29442,214181,195706
1631019922520,29441,214100,195689
1631019922530,29440,214104,195677
1631019922540,29438,214064,195654
1631019922550,29444,214069,195650
1631019922560,29433,214030,195611
1631019922570,29421,214049,195627
1631019922580,29416,213983,195651
1631019922590,29401,214021,195632
1631019922600,29399,213992,195608
1631019922610,29394,213967,195608
1631019922620,29386,213985,195617
1631019922630,29387,213991,195593
1631019922640,29383,213982,195612
1631019922650,29384,213955,195582
1631019922660,29374,213954,195605
1631019922670,29371,213931,195600
1631019922680,29361,213916,195604
1631019922690,29361,213932,195578
1631019922700,29373,213941,195605
1631019922710,29374,213945,195600
1631019922720,29366,213958,195584
1631019922730,29374,213965,195595
1631019922740,29378,213931,195618
1631019922750,29383,213941,195593
1631019922760,29381,213936,195605
1631019922770,29380,213917,195578
1631019922780,29383,213930,195582
1631019922790,29379,213878,195566
1631019922800,29380,213877,195546
1631019922810,29381,213886,195534
1631019922820,29385,213894,195493
1631019922830,29382,213831,195507
1631019922840,29375,213858,195509
1631019922850,29372,213772,195497
1631019922860,29372,213773,195458
1631019922870,29369,213735,195419
1631019922880,29366,213720,195436
1631019922890,29366,213722,195387
1631019922900,29375,213722,195414
1631019922910,29375,213715,195419
1631019922920,29381,213729,195402
1631019922930,29379,213698,195438
1631019922940,29379,213744,195441
1631019922950,29392,213748,195424
1631019922960,29390,213723,195435
1631019922970,29397,213763,195444
1631019922980,29402,213769,195431
1631019922990,29400,213731,195442
1631019923000,29410,213738,195455
1631019923010,29414,213762,195474
1631019923020,29419,213799,195463
1631019923030,29418,213816,195470
1631019923040,29428,213833,195493
1631019923050,29436,213814,195486
1631019923060,29446,213850,195492
1631019923070,29455,213826,195491
1631019923080,29475,213827,195491
1631019923090,29493,213840,195502
1631019923100,29513,213814,195484
1631019923110,29524,213806,195502
1631019923120,29526,213774,195481
1631019923130,29535,213773,195457
1631019923140,29526,213741,195433
1631019923150,29535,213723,195442
1631019923160,29522,213676,195417
1631019923170,29521,213644,195374
1631019923180,29511,213600,195386
1631019923190,29508,213659,195363
1631019923200,29501,213623,195348
1631019923210,29493,213615,195349
1631019923220,29494,213599,195370
1631019923230,29485,213654,195335
1631019923240,29487,213601,195340
1631019923250,29488,213584,195322
1631019923260,29484,213587,195341
1631019923270,29483,213580,195335
1631019923280,29478,213599,195314
1631019923290,29468,213570,195333
1631019923300,29472,213595,195344
1631019923310,29468,213612,195337
1631019923320,29470,213575,195316
1631019923330,29464,213599,195324
1631019923340,29473,213586,195343
1631019923350,29467,213568,195323
1631019923360,29487,213592,195315
1631019923370,29481,213529,195304
1631019923380,29480,213529,195262
1631019923390,29487,213503,195253
1631019923400,29478,213491,195213
1631019923410,29481,213511,195245
1631019923420,29480,213517,195236
1631019923430,29488,213470,195225
1631019923440,29482,213493,195211
1631019923450,29486,213465,195214
1631019923460,29489,213487,195196
1631019923470,29494,213506,195215
1631019923480,29501,213485,195208
1631019923490,29492,213500,195175
1631019923500,29502,213494,195185
1631019923510,29500,213451,195199
1631019923520,29496,213494,195187
1631019923530,29511,213450,195187
1631019923540,29507,213465,195179
1631019923550,29509,213448,195167
1631019923560,29513,213456,195177
1631019923570,29521,213442,195133
1631019923580,29522,213439,195174
1631019923590,29521,213446,195145
1631019923600,29526,213452,195179
1631019923610,29536,213476,195166
1631019923620,29534,213464,195169
1631019923630,29537,213485,195170
1631019923640,29542,213466,195154
1631019923650,29552,213478,195178
1631019923660,29555,213488,195166
1631019923670,29561,213457,195149
1631019923680,29570,213492,195174
1631019923690,29589,213507,195161
1631019923700,29619,213497,195181
1631019923710,29637,213501,195169
1631019923720,29644,213483,195186
1631019923730,29658,213495,195183
1631019923740,29656,213433,195165
1631019923750,29668,213441,195140
1631019923760,29666,213450,195149
1631019923770,29662,213416,195126
1631019923780,29665,213398,195090
1631019923790,29657,213399,195092
1631019923800,29653,213400,195076
1631019923810,29645,213391,195085
1631019923820,29642,213372,195096
1631019923830,29642,213377,195056
1631019923840,29642,213371,195096
1631019923850,29635,213376,195101
1631019923860,29631,213344,195091
1631019923870,29632,213332,195054
1631019923880,29625,213343,195050
1631019923890,29618,213318,195054
1631019923900,29618,213350,195049
1631019923910,29615,213345,195061
1631019923920,29611,213341,195071
1631019923930,29608,213360,195057
1631019923940,29615,213387,195064
1631019923950,29621,213359,195062
1631019923960,29618,213365,195084
1631019923970,29620,213348,195067
1631019923980,29617,213361,195052
1631019923990,29621,213365,195058
1631019924000,29624,213346,195049
1631019924010,29625,213362,195055
1631019924020,29628,213359,195051
1631019924030,29638,213386,195050
1631019924040,29623,213356,195038
1631019924050,29631,213334,195030
1631019924060,29630,213314,195031
1631019924070,29631,213355,195052
1631019924080,29632,213326,195021
1631019924090,29633,213350,195038
1631019924100,29635,213368,195042
1631019924110,29640,213374,195063
1631019924120,29639,213333,195047
1631019924130,29637,213384,195051
1631019924140,29654,213390,195043
1631019924150,29647,213384,195036
1631019924160,29650,213388,195053
1631019924170,29652,213360,195056
1631019924180,29653,213383,195062
1631019924190,29660,213380,195035
1631019924200,29656,213400,195065
1631019924210,29662,213367,195043
1631019924220,29666,213387,195016
1631019924230,29666,213394,195042
1631019924240,29666,213402,195036
1631019924250,29669,213405,195064
1631019924260,29668,213432,195063
1631019924270,29673,213399,195057
1631019924280,29683,213468,195099
1631019924290,29681,213452,195074
1631019924300,29701,213425,195089
1631019924310,29718,213457,195075
1631019924320,29732,213465,195102
1631019924330,29754,213463,195093
1631019924340,29771,213422,195074
1631019924350,29787,213461,195076
1631019924360,29791,213437,195074
1631019924370,29794,213416,195086
1631019924380,29795,213395,195045
1631019924390,29798,213350,195031
1631019924400,29795,213366,195033
1631019924410,29789,213350,195019
1631019924420,29782,213317,195009
1631019924430,29782,213342,195004
1631019924440,29780,213333,195011
1631019924450,29771,213351,195006
1631019924460,29768,213343,194993
1631019924470,29771,213343,195011
1631019924480,29766,213348,194996
1631019924490,29765,213347,195010
1631019924500,29762,213304,195021
1631019924510,29749,213295,194993
1631019924520,29764,213313,194968
1631019924530,29754,213384,194969
1631019924540,29752,213374,195006
1631019924550,29756,213392,195035
1631019924560,29761,213377,195020
1631019924570,29762,213408,195025
1631019924580,29766,213423,195030
1631019924590,29771,213387,195043
1631019924600,29771,213417,195032
1631019924610,29768,213425,195035
1631019924620,29774,213427,195024
1631019924630,29777,213388,195006
1631019924640,29780,213383,195000
1631019924650,29777,213382,194973
1631019924660,29784,213387,194992
1631019924670,29779,213358,194996
1631019924680,29766,213376,195010
1631019924690,29781,213412,195046
1631019924700,29780,213415,195021
1631019924710,29785,213427,195021
1631019924720,29787,213407,194997
1631019924730,29791,213431,195030
1631019924740,29788,213399,195021
1631019924750,29793,213398,195018
1631019924760,29804,213454,195012
1631019924770,29804,213439,195034
1631019924780,29809,213478,195048
1631019924790,29804,213452,195039
1631019924800,29814,213457,195061
1631019924810,29815,213428,195047
1631019924820,29818,213455,195028
1631019924830,29831,213477,195025
1631019924840,29824,213461,195031
1631019924850,29825,213500,195041
1631019924860,29830,213488,195023
1631019924870,29834,213465,195057
1631019924880,29836,213467,195050
1631019924890,29837,213493,195063
1631019924900,29844,213516,195068
1631019924910,29855,213535,195065
1631019924920,29844,213526,195077
1631019924930,29868,213499,195080
1631019924940,29883,213496,195071
1631019924950,29900,213528,195078
1631019924960,29928,213556,195062
1631019924970,29950,213525,195072
1631019924980,29949,213521,195080
1631019924990,29963,213499,195093
1631019925000,29972,213514,195061
1631019925010,29973,213496,195043
1631019925020,29965,213453,195045
1631019925030,29971,213424,195035
1631019925040,29962,213430,195013
1631019925050,29960,213433,195023
1631019925060,29961,213414,195003
1631019925070,29959,213414,195016
1631019925080,29956,213425,195003
1631019925090,29958,213378,195010
1631019925100,29957,213401,195024
1631019925110,29953,213372,195017
1631019925120,29951,213432,195024
1631019925130,29957,213434,195014
1631019925140,29952,213418,194974
1631019925150,29950,213373,195001
1631019925160,29948,213430,194979
1631019925170,29956,213392,194992
1631019925180,29947,213411,195014
1631019925190,29955,213394,194978
1631019925200,29955,213394,194996
1631019925210,29962,213391,195015
1631019925220,29964,213402,194992
1631019925230,29962,213407,194990
1631019925240,29966,213389,195002
1631019925250,29971,213384,194990
1631019925260,29971,213364,194964
1631019925270,29974,213347,194940
1631019925280,29967,213310,194942
1631019925290,29974,213343,194970
1631019925300,29978,213343,194931
1631019925310,29971,213335,194935
1631019925320,29983,213359,194955
1631019925330,29978,213363,194947
1631019925340,29982,213347,194950
1631019925350,29985,213329,194951
1631019925360,29989,213351,194936
1631019925370,29990,213332,194920
1631019925380,29995,213339,194911
1631019925390,29994,213354,194950
1631019925400,30000,213352,194947
1631019925410,30006,213370,194934
1631019925420,30017,213366,194939
1631019925430,30020,213396,194950
1631019925440,30016,213354,194934
1631019925450,30015,213365,194897
1631019925460,30018,213401,194924
1631019925470,30016,213380,194930
1631019925480,30029,213365,194895
1631019925490,30032,213355,194905
1631019925500,30029,213375,194888
1631019925510,30035,213371,194910
1631019925520,30043,213349,194921
1631019925530,30042,213412,194929
1631019925540,30046,213389,194934
1631019925550,30052,213420,194930
1631019925560,30065,213419,194935
1631019925570,30081,213396,194933
1631019925580,30104,213421,194928
1631019925590,30118,213396,194922
1631019925600,30142,213420,194939
1631019925610,30153,213416,194942
1631019925620,30166,213368,194919
1631019925630,30171,213426,194898
1631019925640,30171,213360,194886
1631019925650,30168,213351,194882
1631019925660,30174,213327,194833
1631019925670,30168,213275,194840
1631019925680,30161,213257,194836
1631019925690,30158,213316,194860
1631019925700,30156,213280,194832
1631019925710,30148,213298,194840
1631019925720,30146,213253,194823
1631019925730,30143,213278,194816
1631019925740,30147,213242,194847
1631019925750,30140,213268,194821
1631019925760,30138,213216,194822
1631019925770,30140,213245,194820
1631019925780,30132,213252,194804
1631019925790,30131,213268,194814
1631019925800,30122,213265,194817
1631019925810,30120,213245,194828
1631019925820,30124,213285,194813
1631019925830,30131,213284,194806
1631019925840,30125,213212,194821
1631019925850,30130,213292,194815
1631019925860,30129,213243,194823
1631019925870,30135,213260,194802
1631019925880,30131,213251,194793
1631019925890,30142,213259,194793
1631019925900,30136,213252,194773
1631019925910,30144,213242,194774
1631019925920,30137,213229,194771
1631019925930,30148,213188,194776
1631019925940,30133,213186,194758
1631019925950,30137,213221,194744
1631019925960,30142,213225,194771
1631019925970,30135,213199,194742
1631019925980,30134,213216,194773
1631019925990,30142,213199,194745
1631019926000,30141,213172,194765
1631019926010,30137,213224,194771
1631019926020,30141,213237,194753
1631019926030,30142,213191,194753
1631019926040,30144,213176,194761
1631019926050,30152,213221,194761
1631019926060,30153,213196,194730
1631019926070,30154,213222,194745
1631019926080,30148,213203,194779
1631019926090,30141,213198,194747
1631019926100,30140,213229,194766
1631019926110,30147,213210,194754
1631019926120,30144,213209,194746
1631019926130,30142,213181,194704
1631019926140,30139,213213,194740
1631019926150,30153,213224,194710
1631019926160,30151,213217,194720
1631019926170,30144,213230,194731
1631019926180,30149,213211,194737
1631019926190,30153,213213,194705
1631019926200,30159,213209,194694
1631019926210,30179,213205,194689
1631019926220,30193,213204,194696
1631019926230,30213,213219,194705
1631019926240,30228,213201,194703
1631019926250,30240,213186,194696
1631019926260,30247,213184,194696
1631019926270,30253,213140,194655
1631019926280,30254,213110,194640
1631019926290,30240,213109,194636
1631019926300,30249,213086,194601
1631019926310,30246,213045,194577
1631019926320,30237,213058,194579
1631019926330,30229,213039,194572
1631019926340,30224,213067,194561
1631019926350,30223,213006,194564
1631019926360,30216,213042,194556
1631019926370,30202,212996,194542
1631019926380,30204,213013,194529
1631019926390,30197,212954,194511
1631019926400,30198,213001,194493
1631019926410,30195,212966,194476
1631019926420,30179,212945,194488
1631019926430,30166,212934,194460
1631019926440,30160,212911,194449
1631019926450,30162,212969,194447
1631019926460,30160,212945,194424
1631019926470,30146,212921,194421
1631019926480,30153,212945,194416
1631019926490,30145,212915,194381
1631019926500,30148,212907,194415
1631019926510,30140,212910,194383
1631019926520,30139,212874,194380
1631019926530,30140,212876,194395
1631019926540,30139,212857,194367
1631019926550,30143,212860,194347
1631019926560,30138,212867,194378
1631019926570,30131,212857,194372
1631019926580,30132,212861,194361
1631019926590,30126,212846,194332
1631019926600,30118,212844,194356
1631019926610,30118,212857,194359
1631019926620,30131,212890,194373
1631019926630,30115,212867,194353
1631019926640,30110,212864,194376
1631019926650,30109,212891,194362
1631019926660,30113,212875,194350
1631019926670,30113,212896,194358
1631019926680,30116,212889,194360
1631019926690,30113,212922,194369
1631019926700,30122,212926,194393
1631019926710,30124,212916,194356
1631019926720,30128,212907,194390
1631019926730,30122,212921,194388
1631019926740,30129,212921,194369
1631019926750,30120,212913,194360
