timestamp,green,ir,red
1629456577001,24087,232441,195102
1629456577011,24094,232491,195101
1629456577021,24102,232527,195109
1629456577031,24117,232554,195085
1629456577041,24113,232537,195081
1629456577051,24121,232557,195104
1629456577061,24124,232545,195108
1629456577071,24130,232545,195094
1629456577081,24129,232555,195085
1629456577091,24133,232545,195079
1629456577101,24132,232504,195086
1629456577111,24127,232500,195080
1629456577121,24127,232478,195014
1629456577131,24112,232457,195027
1629456577141,24096,232389,195024
1629456577151,24076,232297,194970
1629456577161,24045,232289,194940
1629456577171,24012,232206,194919
1629456577181,23978,232186,194887
1629456577191,23945,232134,194859
1629456577201,23906,232035,194822
1629456577211,23876,232022,194804
1629456577221,23851,231962,194778
1629456577231,23818,231923,194772
1629456577241,23789,231902,194733
1629456577251,23765,231839,194703
1629456577261,23750,231876,194674
1629456577271,23736,231822,194651
1629456577281,23714,231794,194679
1629456577291,23697,231799,194657
1629456577301,23686,231806,194695
1629456577311,23677,231736,194707
1629456577321,23660,231746,194697
1629456577331,23658,231745,194684
1629456577341,23651,231732,194700
1629456577351,23657,231714,194688
1629456577361,23655,231744,194723
1629456577371,23671,231745,194745
1629456577381,23675,231764,194748
1629456577391,23677,231759,194752
1629456577401,23683,231755,194771
1629456577411,23687,231748,194767
1629456577421,23685,231772,194767
1629456577431,23688,231702,194787
1629456577441,23690,231701,194799
1629456577451,23689,231754,194788
1629456577461,23689,231727,194776
1629456577471,23678,231706,194781
1629456577481,23682,231734,194834
1629456577491,23697,231764,194780
1629456577501,23689,231775,194790
1629456577511,23699,231737,194816
1629456577521,23694,231770,194814
1629456577531,23700,231784,194794
1629456577541,23705,231780,194806
1629456577551,23708,231770,194831
1629456577561,23711,231808,194804
1629456577571,23709,231811,194805
1629456577581,23702,231844,194791
1629456577591,23705,231808,194748
1629456577601,23705,231834,194782
1629456577611,23700,231872,194757
1629456577621,23697,231869,194755
1629456577631,23702,231895,194757
1629456577641,23709,231907,194754
1629456577651,23704,231881,194744
1629456577661,23695,231887,194724
1629456577671,23689,231861,194695
1629456577681,23681,231872,194673
1629456577691,23690,231896,194666
1629456577701,23688,231932,194679
1629456577711,23696,231937,194687
1629456577721,23705,231969,194715
1629456577731,23710,231947,194740
1629456577741,23733,231960,194756
1629456577751,23738,231972,194768
1629456577761,23741,232008,194787
1629456577771,23746,232036,194761
1629456577781,23734,231948,194772
1629456577791,23722,231963,194757
1629456577801,23695,231880,194771
1629456577811,23672,231848,194767
1629456577821,23652,231772,194782
1629456577831,23623,231695,194733
1629456577841,23595,231658,194720
1629456577851,23570,231553,194672
1629456577861,23542,231519,194641
1629456577871,23514,231459,194632
1629456577881,23487,231394,194611
1629456577891,23461,231316,194604
1629456577901,23443,231303,194560
1629456577911,23415,231257,194550
1629456577921,23394,231217,194507
1629456577931,23367,231123,194481
1629456577941,23351,231117,194429
1629456577951,23310,231050,194416
1629456577961,23301,230976,194357
1629456577971,23279,230916,194338
1629456577981,23265,230872,194331
1629456577991,23261,230851,194354
1629456578001,23257,230887,194338
1629456578011,23254,230845,194317
1629456578021,23251,230821,194317
1629456578031,23249,230815,194267
1629456578041,23244,230807,194289
1629456578051,23242,230762,194284
1629456578061,23230,230748,194256
1629456578071,23236,230743,194256
1629456578081,23234,230754,194252
1629456578091,23240,230746,194237
1629456578101,23240,230757,194235
1629456578111,23238,230723,194229
1629456578121,23234,230705,194211
1629456578131,23235,230674,194221
1629456578141,23235,230721,194230
1629456578151,23243,230694,194227
1629456578161,23252,230721,194239
1629456578171,23264,230750,194213
1629456578181,23272,230756,194229
1629456578191,23272,230749,194216
1629456578201,23275,230745,194170
1629456578211,23281,230734,194180
1629456578221,23284,230744,194172
1629456578231,23291,230771,194191
1629456578241,23297,230797,194173
1629456578251,23312,230824,194217
1629456578261,23329,230825,194228
1629456578271,23358,230909,194246
1629456578281,23362,230934,194267
1629456578291,23387,230924,194272
1629456578301,23407,230938,194286
1629456578311,23408,230969,194299
1629456578321,23425,230997,194353
1629456578331,23443,231020,194383
1629456578341,23469,231084,194413
1629456578351,23485,231117,194471
1629456578361,23514,231145,194495
1629456578371,23532,231181,194537
1629456578381,23559,231218,194565
1629456578391,23580,231240,194594
1629456578401,23596,231287,194585
1629456578411,23600,231286,194611
1629456578421,23622,231264,194583
1629456578431,23620,231266,194610
1629456578441,23621,231227,194606
1629456578451,23612,231208,194591
1629456578461,23607,231146,194621
1629456578471,23595,231137,194621
1629456578481,23577,231064,194607
1629456578491,23575,231029,194613
1629456578501,23554,231004,194602
1629456578511,23536,230960,194571
1629456578521,23520,230916,194552
1629456578531,23511,230902,194547
1629456578541,23508,230876,194552
1629456578551,23504,230861,194549
1629456578561,23500,230833,194555
1629456578571,23488,230818,194538
1629456578581,23499,230827,194535
1629456578591,23485,230795,194544
1629456578601,23486,230779,194496
1629456578611,23478,230778,194508
1629456578621,23485,230716,194515
1629456578631,23495,230763,194514
1629456578641,23502,230765,194531
1629456578651,23505,230770,194497
1629456578661,23521,230796,194520
1629456578671,23535,230835,194519
1629456578681,23550,230864,194551
1629456578691,23565,230875,194558
1629456578701,23577,230885,194556
1629456578711,23590,230919,194564
1629456578721,23596,230908,194584
1629456578731,23613,230920,194595
1629456578741,23624,230934,194604
1629456578751,23631,230955,194579
1629456578761,23636,230939,194622
1629456578771,23648,230982,194576
1629456578781,23659,230965,194564
1629456578791,23667,230961,194579
1629456578801,23674,230921,194571
1629456578811,23685,231000,194556
1629456578821,23695,230981,194548
1629456578831,23705,230969,194543
1629456578841,23710,230984,194557
1629456578851,23730,231043,194560
1629456578861,23746,231063,194586
1629456578871,23759,231133,194582
1629456578881,23776,231166,194605
1629456578891,23795,231200,194611
1629456578901,23807,231219,194633
1629456578911,23821,231226,194637
1629456578921,23834,231282,194627
1629456578931,23837,231328,194674
1629456578941,23861,231309,194676
1629456578951,23877,231354,194646
1629456578961,23887,231369,194665
1629456578971,23896,231362,194677
1629456578981,23919,231384,194703
1629456578991,23930,231468,194705
1629456579001,23947,231478,194701
1629456579011,23962,231519,194741
1629456579021,23978,231524,194743
1629456579031,23993,231568,194740
1629456579041,24005,231626,194746
1629456579051,24018,231610,194761
1629456579061,24035,231668,194755
1629456579071,24052,231669,194790
1629456579081,24057,231655,194780
1629456579091,24068,231656,194775
1629456579101,24063,231615,194796
1629456579111,24070,231586,194758
1629456579121,24052,231532,194759
1629456579131,24051,231533,194778
1629456579141,24049,231515,194757
1629456579151,24041,231486,194766
1629456579161,24035,231445,194749
1629456579171,24028,231460,194757
1629456579181,24028,231461,194745
1629456579191,24019,231413,194762
1629456579201,24017,231388,194748
1629456579211,24009,231381,194742
1629456579221,24009,231338,194763
1629456579231,24005,231366,194726
1629456579241,24004,231363,194719
1629456579251,24004,231320,194731
1629456579261,23997,231354,194713
1629456579271,23990,231321,194731
1629456579281,23986,231316,194690
1629456579291,23989,231274,194709
1629456579301,23988,231305,194693
1629456579311,23992,231273,194687
1629456579321,24001,231300,194699
1629456579331,24004,231316,194719
1629456579341,24010,231348,194716
1629456579351,24020,231376,194694
1629456579361,24028,231363,194717
1629456579371,24031,231361,194675
1629456579381,24036,231370,194706
1629456579391,24048,231348,194697
1629456579401,24050,231357,194706
1629456579411,24055,231357,194691
1629456579421,24059,231389,194688
1629456579431,24064,231385,194699
1629456579441,24073,231390,194702
1629456579451,24079,231428,194686
1629456579461,24085,231451,194687
1629456579471,24091,231437,194695
1629456579481,24101,231454,194648
1629456579491,24116,231497,194655
1629456579501,24119,231482,194682
1629456579511,24132,231503,194698
1629456579521,24146,231566,194700
1629456579531,24162,231572,194708
1629456579541,24160,231612,194725
1629456579551,24185,231620,194696
1629456579561,24176,231611,194734
1629456579571,24205,231660,194727
1629456579581,24211,231677,194735
1629456579591,24214,231691,194735
1629456579601,24227,231701,194753
1629456579611,24246,231752,194775
1629456579621,24259,231779,194770
1629456579631,24276,231777,194795
1629456579641,24281,231821,194777
1629456579651,24303,231822,194808
1629456579661,24316,231875,194803
1629456579671,24325,231858,194824
1629456579681,24340,231900,194825
1629456579691,24351,231918,194817
1629456579701,24351,231919,194853
1629456579711,24379,231948,194877
1629456579721,24388,231970,194858
1629456579731,24406,232041,194876
1629456579741,24418,232040,194895
1629456579751,24421,232072,194901
1629456579761,24437,232052,194903
1629456579771,24441,232019,194946
1629456579781,24449,232003,194909
1629456579791,24435,231994,194915
1629456579801,24442,231949,194906
1629456579811,24445,231942,194921
1629456579821,24435,231950,194937
1629456579831,24431,231924,194945
1629456579841,24425,231917,194932
1629456579851,24424,231903,194928
1629456579861,24418,231924,194941
1629456579871,24427,231860,194929
1629456579881,24421,231862,194955
1629456579891,24415,231866,194961
1629456579901,24414,231823,194963
1629456579911,24408,231862,194959
1629456579921,24416,231801,194955
1629456579931,24407,231815,194952
1629456579941,24404,231798,194932
1629456579951,24397,231794,194961
1629456579961,24403,231812,194978
1629456579971,24404,231800,194969
1629456579981,24408,231812,194970
1629456579991,24412,231822,194965
1629456580001,24415,231833,194985
1629456580011,24426,231813,195007
1629456580021,24429,231850,194971
1629456580031,24442,231854,194978
1629456580041,24440,231873,194980
1629456580051,24442,231836,194997
1629456580061,24456,231916,195006
1629456580071,24463,231884,195011
1629456580081,24471,231905,195034
1629456580091,24480,231900,195025
1629456580101,24499,231966,195044
1629456580111,24504,231973,195058
1629456580121,24522,231985,195080
1629456580131,24536,231984,195068
1629456580141,24541,231995,195082
1629456580151,24555,231987,195103
1629456580161,24565,232009,195121
1629456580171,24580,232035,195127
1629456580181,24593,232038,195128
1629456580191,24596,232092,195131
1629456580201,24623,232098,195138
1629456580211,24627,232147,195166
1629456580221,24648,232161,195196
1629456580231,24664,232169,195186
1629456580241,24670,232190,195218
1629456580251,24689,232198,195227
1629456580261,24707,232229,195239
1629456580271,24723,232231,195245
1629456580281,24734,232263,195247
1629456580291,24761,232290,195244
1629456580301,24777,232324,195265
1629456580311,24786,232328,195269
1629456580321,24806,232351,195249
1629456580331,24820,232392,195298
1629456580341,24836,232431,195319
1629456580351,24850,232418,195284
1629456580361,24859,232462,195286
1629456580371,24878,232518,195312
1629456580381,24887,232520,195294
1629456580391,24893,232571,195296
1629456580401,24910,232584,195299
1629456580411,24925,232569,195326
1629456580421,24941,232670,195356
1629456580431,24958,232635,195336
1629456580441,24972,232706,195359
1629456580451,24983,232717,195379
1629456580461,24993,232766,195371
1629456580471,25000,232737,195401
1629456580481,25016,232752,195401
1629456580491,25022,232743,195380
1629456580501,25027,232773,195392
1629456580511,25031,232760,195406
1629456580521,25022,232704,195377
1629456580531,25012,232695,195413
1629456580541,25004,232684,195402
1629456580551,24997,232637,195375
1629456580561,24983,232638,195361
1629456580571,24969,232617,195380
1629456580581,24958,232615,195373
1629456580591,24944,232599,195369
1629456580601,24940,232571,195377
1629456580611,24926,232524,195371
1629456580621,24917,232547,195363
1629456580631,24904,232513,195350
1629456580641,24891,232496,195364
1629456580651,24879,232474,195343
1629456580661,24868,232463,195352
1629456580671,24853,232426,195345
1629456580681,24847,232429,195349
1629456580691,24834,232409,195365
1629456580701,24825,232411,195347
1629456580711,24810,232395,195356
1629456580721,24820,232409,195365
1629456580731,24826,232422,195387
1629456580741,24821,232392,195381
1629456580751,24832,232418,195389
1629456580761,24829,232457,195400
1629456580771,24835,232455,195445
1629456580781,24832,232415,195392
1629456580791,24840,232444,195430
1629456580801,24846,232467,195445
1629456580811,24842,232452,195447
1629456580821,24840,232451,195450
1629456580831,24844,232483,195505
1629456580841,24854,232498,195471
1629456580851,24842,232482,195480
1629456580861,24857,232491,195483
1629456580871,24856,232537,195509
1629456580881,24856,232507,195504
1629456580891,24852,232502,195489
1629456580901,24854,232559,195508
1629456580911,24851,232545,195488
1629456580921,24853,232526,195503
1629456580931,24857,232538,195493
1629456580941,24856,232573,195498
1629456580951,24861,232580,195500
1629456580961,24869,232619,195501
1629456580971,24871,232618,195509
1629456580981,24873,232628,195534
1629456580991,24878,232648,195548
1629456581001,24888,232652,195538
1629456581011,24888,232684,195554
1629456581021,24897,232690,195563
1629456581031,24905,232701,195573
1629456581041,24906,232722,195555
1629456581051,24917,232752,195576
1629456581061,24925,232787,195544
1629456581071,24932,232781,195553
1629456581081,24931,232801,195559
1629456581091,24935,232799,195587
1629456581101,24951,232827,195607
1629456581111,24951,232824,195606
1629456581121,24960,232859,195620
1629456581131,24972,232885,195620
1629456581141,24980,232923,195613
1629456581151,24986,232940,195613
1629456581161,24990,232989,195646
1629456581171,25003,232975,195640
1629456581181,25003,232984,195652
1629456581191,25007,232989,195664
1629456581201,25020,232969,195669
1629456581211,25020,233006,195623
1629456581221,25016,232995,195642
1629456581231,25012,232972,195650
1629456581241,24992,232941,195643
1629456581251,24973,232917,195621
1629456581261,24955,232856,195638
1629456581271,24938,232862,195627
1629456581281,24911,232843,195591
1629456581291,24884,232777,195585
1629456581301,24851,232773,195581
1629456581311,24825,232708,195564
1629456581321,24798,232710,195560
1629456581331,24769,232651,195536
1629456581341,24734,232603,195517
1629456581351,24697,232585,195523
1629456581361,24670,232571,195498
1629456581371,24643,232497,195474
1629456581381,24606,232478,195465
1629456581391,24574,232430,195423
1629456581401,24536,232397,195411
1629456581411,24505,232370,195391
1629456581421,24478,232341,195386
1629456581431,24447,232330,195377
1629456581441,24419,232269,195346
1629456581451,24405,232319,195354
1629456581461,24391,232313,195337
1629456581471,24382,232294,195331
1629456581481,24366,232259,195313
1629456581491,24364,232269,195290
1629456581501,24337,232257,195291
1629456581511,24333,232241,195310
1629456581521,24318,232267,195291
1629456581531,24309,232256,195302
1629456581541,24279,232211,195251
1629456581551,24277,232203,195257
1629456581561,24267,232201,195270
1629456581571,24262,232172,195242
1629456581581,24253,232182,195226
1629456581591,24237,232151,195248
1629456581601,24234,232172,195229
1629456581611,24228,232156,195229
1629456581621,24216,232129,195187
1629456581631,24211,232150,195181
1629456581641,24207,232130,195171
1629456581651,24194,232116,195163
1629456581661,24187,232110,195161
1629456581671,24185,232090,195120
1629456581681,24185,232106,195114
1629456581691,24171,232072,195083
1629456581701,24170,232087,195081
1629456581711,24168,232109,195061
1629456581721,24162,232131,195077
1629456581731,24166,232174,195060
1629456581741,24167,232157,195049
1629456581751,24173,232142,195057
1629456581761,24177,232147,195056
1629456581771,24175,232147,195051
1629456581781,24173,232179,195029
1629456581791,24182,232211,195057
1629456581801,24180,232199,195015
1629456581811,24184,232203,195036
1629456581821,24187,232208,195026
1629456581831,24193,232224,195026
1629456581841,24188,232245,195024
1629456581851,24189,232249,195028
1629456581861,24189,232245,195027
1629456581871,24199,232249,195017
1629456581881,24203,232230,195010
1629456581891,24206,232266,195023
1629456581901,24213,232267,195025
1629456581911,24214,232295,195031
1629456581921,24223,232286,194995
1629456581931,24221,232349,195029
1629456581941,24226,232296,194999
1629456581951,24231,232316,194998
1629456581961,24237,232343,195017
1629456581971,24238,232315,195028
1629456581981,24254,232326,195015
1629456581991,24250,232375,194984
1629456582001,24258,232340,194986
1629456582011,24245,232329,194974
1629456582021,24246,232332,194946
1629456582031,24228,232285,194956
1629456582041,24208,232251,194902
1629456582051,24180,232186,194912
1629456582061,24151,232137,194873
1629456582071,24126,232060,194867
1629456582081,24087,232046,194846
1629456582091,24062,232011,194820
1629456582101,24032,231945,194795
1629456582111,24005,231885,194777
1629456582121,23978,231854,194786
1629456582131,23950,231799,194758
1629456582141,23924,231756,194759
1629456582151,23902,231754,194732
1629456582161,23880,231740,194710
1629456582171,23853,231682,194717
1629456582181,23834,231626,194706
1629456582191,23813,231610,194706
1629456582201,23792,231574,194685
1629456582211,23774,231535,194656
1629456582221,23760,231517,194663
1629456582231,23742,231495,194653
1629456582241,23725,231496,194649
1629456582251,23724,231495,194640
1629456582261,23718,231492,194640
1629456582271,23724,231483,194652
1629456582281,23723,231521,194638
1629456582291,23739,231494,194643
1629456582301,23730,231502,194666
1629456582311,23727,231507,194653
1629456582321,23725,231477,194654
1629456582331,23724,231483,194653
1629456582341,23723,231496,194650
1629456582351,23726,231480,194637
1629456582361,23725,231498,194652
1629456582371,23732,231485,194653
1629456582381,23736,231532,194662
1629456582391,23745,231493,194655
1629456582401,23744,231527,194657
1629456582411,23756,231556,194642
1629456582421,23752,231530,194657
1629456582431,23757,231560,194660
1629456582441,23766,231551,194676
1629456582451,23776,231559,194670
1629456582461,23780,231603,194683
1629456582471,23788,231594,194684
1629456582481,23789,231614,194673
1629456582491,23801,231625,194661
1629456582501,23813,231604,194684
1629456582511,23822,231626,194697
1629456582521,23827,231652,194662
1629456582531,23830,231665,194677
1629456582541,23838,231705,194665
1629456582551,23850,231716,194673
1629456582561,23851,231725,194684
1629456582571,23870,231752,194660
1629456582581,23877,231774,194674
1629456582591,23891,231755,194664
1629456582601,23901,231823,194660
1629456582611,23910,231847,194685
1629456582621,23930,231856,194691
1629456582631,23928,231854,194675
1629456582641,23951,231881,194663
1629456582651,23947,231889,194647
1629456582661,23947,231886,194650
1629456582671,23958,231881,194650
1629456582681,23969,231915,194641
1629456582691,23976,231900,194648
1629456582701,23989,231938,194628
1629456582711,23998,231956,194647
1629456582721,24011,231955,194668
1629456582731,24022,232004,194647
1629456582741,24031,232016,194678
1629456582751,24037,232067,194686
1629456582761,24056,232066,194694
1629456582771,24065,232082,194687
1629456582781,24075,232068,194693
1629456582791,24086,232117,194714
1629456582801,24092,232068,194716
1629456582811,24099,232084,194711
1629456582821,24099,232071,194745
1629456582831,24080,232016,194699
1629456582841,24068,231959,194698
1629456582851,24052,231929,194679
1629456582861,24033,231914,194688
1629456582871,24019,231856,194677
1629456582881,24000,231818,194647
1629456582891,23988,231774,194671
1629456582901,23963,231779,194648
1629456582911,23956,231755,194627
1629456582921,23941,231710,194600
1629456582931,23932,231711,194631
1629456582941,23924,231691,194627
1629456582951,23910,231680,194633
1629456582961,23901,231629,194623
1629456582971,23892,231594,194631
1629456582981,23882,231613,194592
1629456582991,23867,231524,194589
1629456583001,23852,231520,194588
1629456583011,23851,231501,194573
1629456583021,23851,231481,194560
1629456583031,23847,231513,194588
1629456583041,23857,231537,194600
1629456583051,23867,231535,194589
1629456583061,23876,231529,194609
1629456583071,23882,231541,194603
1629456583081,23891,231583,194649
1629456583091,23893,231586,194614
1629456583101,23897,231567,194627
1629456583111,23903,231575,194612
1629456583121,23909,231555,194647
1629456583131,23918,231586,194626
1629456583141,23929,231583,194604
1629456583151,23929,231608,194650
1629456583161,23937,231594,194635
1629456583171,23945,231557,194626
1629456583181,23943,231576,194629
1629456583191,23957,231611,194644
1629456583201,23969,231608,194671
1629456583211,23978,231659,194654
1629456583221,23988,231686,194663
1629456583231,24002,231682,194680
1629456583241,24014,231699,194708
1629456583251,24031,231772,194737
1629456583261,24058,231776,194765
1629456583271,24075,231843,194812
1629456583281,24104,231851,194850
1629456583291,24120,231911,194874
1629456583301,24146,231938,194934
1629456583311,24168,231987,194985
1629456583321,24200,231998,195019
1629456583331,24230,232022,195043
1629456583341,24252,232060,195076
1629456583351,24284,232121,195116
1629456583361,24304,232168,195154
1629456583371,24329,232190,195150
1629456583381,24355,232210,195171
1629456583391,24380,232243,195217
1629456583401,24403,232310,195209
1629456583411,24430,232301,195247
1629456583421,24457,232331,195281
1629456583431,24482,232378,195284
1629456583441,24510,232412,195329
1629456583451,24519,232447,195316
1629456583461,24548,232499,195351
1629456583471,24584,232493,195357
1629456583481,24597,232548,195353
1629456583491,24612,232555,195371
1629456583501,24619,232589,195350
1629456583511,24634,232602,195346
1629456583521,24633,232520,195333
1629456583531,24625,232510,195277
1629456583541,24612,232445,195266
1629456583551,24599,232415,195260
1629456583561,24589,232404,195216
1629456583571,24578,232352,195231
1629456583581,24570,232335,195200
1629456583591,24561,232325,195185
1629456583601,24544,232312,195171
1629456583611,24546,232296,195141
1629456583621,24531,232288,195143
1629456583631,24519,232234,195115
1629456583641,24513,232207,195133
1629456583651,24509,232208,195102
1629456583661,24500,232155,195077
1629456583671,24494,232163,195083
1629456583681,24481,232207,195075
1629456583691,24480,232141,195057
1629456583701,24482,232146,195010
1629456583711,24471,232111,195032
1629456583721,24467,232094,195049
1629456583731,24467,232127,195011
1629456583741,24468,232127,194999
1629456583751,24475,232102,194986
1629456583761,24472,232144,194989
1629456583771,24485,232143,194995
1629456583781,24480,232129,194997
1629456583791,24485,232152,194997
1629456583801,24492,232146,194972
1629456583811,24497,232138,194993
1629456583821,24505,232179,194999
1629456583831,24518,232177,194998
1629456583841,24518,232194,194988
1629456583851,24528,232193,195001
1629456583861,24525,232194,195016
1629456583871,24535,232187,195017
1629456583881,24546,232183,194995
1629456583891,24552,232214,194975
1629456583901,24557,232201,194996
1629456583911,24563,232209,194986
1629456583921,24565,232226,194993
1629456583931,24570,232241,194969
1629456583941,24587,232253,194975
1629456583951,24595,232267,194966
1629456583961,24602,232274,194950
1629456583971,24609,232232,194955
1629456583981,24611,232276,194956
1629456583991,24615,232303,194947
1629456584001,24625,232285,194904
1629456584011,24627,232269,194936
1629456584021,24640,232302,194913
1629456584031,24645,232307,194933
1629456584041,24654,232328,194921
1629456584051,24665,232338,194909
1629456584061,24670,232362,194904
1629456584071,24677,232339,194901
1629456584081,24696,232390,194898
1629456584091,24704,232434,194880
1629456584101,24720,232421,194912
1629456584111,24725,232433,194896
1629456584121,24749,232466,194918
1629456584131,24754,232508,194917
1629456584141,24766,232517,194906
1629456584151,24777,232502,194946
1629456584161,24790,232526,194912
1629456584171,24808,232532,194961
1629456584181,24825,232567,194931
1629456584191,24837,232605,194978
1629456584201,24845,232601,194988
1629456584211,24858,232619,194989
1629456584221,24870,232608,194993
1629456584231,24870,232600,195000
1629456584241,24872,232581,194998
1629456584251,24874,232541,194977
1629456584261,24863,232541,194983
1629456584271,24845,232496,194993
1629456584281,24832,232472,194978
1629456584291,24827,232448,194970
1629456584301,24815,232464,194966
1629456584311,24805,232436,194962
1629456584321,24808,232421,194964
1629456584331,24804,232419,195003
1629456584341,24798,232428,194989
1629456584351,24795,232407,195010
1629456584361,24785,232353,195000
1629456584371,24783,232369,194968
1629456584381,24778,232335,195001
1629456584391,24777,232372,195014
1629456584401,24775,232365,195019
1629456584411,24778,232364,195043
1629456584421,24776,232359,195050
1629456584431,24785,232387,195091
1629456584441,24784,232341,195082
1629456584451,24784,232398,195112
1629456584461,24799,232411,195122
1629456584471,24804,232423,195151
1629456584481,24817,232445,195151
1629456584491,24827,232464,195160
1629456584501,24840,232500,195190
1629456584511,24855,232498,195249
1629456584521,24865,232521,195243
1629456584531,24870,232522,195267
1629456584541,24881,232545,195290
1629456584551,24885,232525,195283
1629456584561,24896,232564,195326
1629456584571,24901,232553,195312
1629456584581,24905,232561,195283
1629456584591,24911,232552,195283
1629456584601,24906,232569,195251
1629456584611,24924,232558,195268
1629456584621,24930,232576,195262
1629456584631,24935,232617,195260
1629456584641,24938,232624,195261
1629456584651,24951,232631,195262
1629456584661,24957,232611,195280
1629456584671,24969,232634,195264
1629456584681,24976,232695,195271
1629456584691,24995,232711,195294
1629456584701,25006,232710,195302
1629456584711,25021,232709,195320
1629456584721,25029,232794,195347
1629456584731,25045,232806,195341
1629456584741,25059,232833,195378
1629456584751,25079,232818,195381
1629456584761,25088,232852,195374
1629456584771,25107,232905,195390
1629456584781,25116,232876,195384
1629456584791,25127,232902,195411
1629456584801,25135,232937,195443
1629456584811,25150,232916,195425
1629456584821,25172,233017,195449
1629456584831,25189,233015,195471
1629456584841,25199,233075,195523
1629456584851,25224,233079,195526
1629456584861,25245,233125,195558
1629456584871,25264,233138,195566
1629456584881,25294,233178,195609
1629456584891,25313,233200,195633
1629456584901,25332,233246,195671
1629456584911,25355,233304,195698
1629456584921,25379,233325,195726
1629456584931,25398,233353,195772
1629456584941,25422,233420,195757
1629456584951,25446,233436,195793
1629456584961,25454,233451,195804
1629456584971,25473,233452,195803
1629456584981,25467,233393,195800
1629456584991,25473,233408,195818
1629456585001,25466,233379,195770
1629456585011,25455,233360,195799
1629456585021,25450,233343,195777
1629456585031,25438,233317,195783
1629456585041,25433,233319,195776
1629456585051,25430,233317,195794
1629456585061,25415,233319,195762
1629456585071,25415,233264,195777
1629456585081,25408,233302,195764
1629456585091,25403,233275,195761
1629456585101,25389,233241,195784
1629456585111,25387,233235,195787
1629456585121,25384,233249,195777
1629456585131,25370,233223,195771
1629456585141,25368,233245,195789
1629456585151,25363,233229,195776
1629456585161,25354,233228,195803
1629456585171,25348,233217,195780
1629456585181,25340,233191,195788
1629456585191,25340,233209,195801
1629456585201,25341,233241,195801
1629456585211,25341,233211,195800
1629456585221,25349,233240,195784
1629456585231,25342,233212,195801
1629456585241,25346,233213,195795
1629456585251,25346,233211,195828
1629456585261,25346,233219,195816
1629456585271,25347,233226,195832
1629456585281,25344,233247,195826
1629456585291,25348,233232,195834
1629456585301,25341,233217,195813
1629456585311,25338,233221,195821
1629456585321,25339,233194,195771
1629456585331,25342,233206,195794
1629456585341,25335,233196,195766
1629456585351,25338,233233,195767
1629456585361,25332,233226,195781
1629456585371,25336,233234,195781
1629456585381,25338,233237,195759
1629456585391,25337,233247,195782
1629456585401,25344,233265,195789
1629456585411,25346,233242,195777
1629456585421,25346,233243,195760
1629456585431,25342,233261,195779
1629456585441,25347,233256,195753
1629456585451,25347,233275,195750
1629456585461,25354,233238,195776
1629456585471,25352,233280,195764
1629456585481,25354,233264,195771
1629456585491,25346,233288,195787
1629456585501,25356,233249,195752
1629456585511,25362,233313,195759
1629456585521,25365,233296,195776
1629456585531,25368,233292,195787
1629456585541,25372,233287,195772
1629456585551,25373,233311,195748
1629456585561,25375,233279,195760
1629456585571,25384,233288,195753
1629456585581,25378,233334,195763
1629456585591,25381,233304,195759
1629456585601,25389,233322,195772
1629456585611,25394,233326,195752
1629456585621,25398,233324,195764
1629456585631,25404,233371,195766
1629456585641,25412,233357,195790
1629456585651,25416,233379,195773
1629456585661,25413,233370,195777
1629456585671,25409,233350,195770
1629456585681,25404,233325,195748
1629456585691,25388,233309,195752
1629456585701,25375,233238,195706
1629456585711,25348,233193,195717
1629456585721,25327,233172,195695
1629456585731,25311,233139,195668
1629456585741,25288,233086,195656
1629456585751,25265,233069,195653
1629456585761,25247,233049,195650
1629456585771,25225,233022,195607
1629456585781,25201,232982,195624
1629456585791,25177,232926,195606
1629456585801,25161,232958,195570
1629456585811,25143,232928,195579
1629456585821,25125,232924,195551
1629456585831,25107,232868,195558
1629456585841,25083,232880,195540
1629456585851,25063,232817,195507
1629456585861,25042,232799,195517
1629456585871,25028,232794,195538
1629456585881,25008,232790,195502
1629456585891,24988,232776,195468
1629456585901,24976,232757,195457
1629456585911,24973,232781,195477
1629456585921,24967,232773,195469
1629456585931,24963,232764,195468
1629456585941,24956,232772,195456
1629456585951,24950,232796,195480
1629456585961,24950,232790,195481
1629456585971,24951,232763,195450
1629456585981,24936,232809,195457
1629456585991,24932,232765,195478
1629456586001,24930,232760,195463
1629456586011,24927,232789,195486
1629456586021,24916,232756,195484
1629456586031,24913,232763,195470
1629456586041,24912,232789,195457
1629456586051,24916,232777,195457
1629456586061,24904,232795,195486
1629456586071,24904,232808,195434
1629456586081,24906,232800,195433
1629456586091,24907,232796,195445
1629456586101,24907,232820,195443
1629456586111,24903,232831,195453
1629456586121,24904,232863,195457
1629456586131,24904,232815,195449
1629456586141,24901,232851,195460
1629456586151,24907,232836,195445
1629456586161,24909,232833,195438
1629456586171,24903,232847,195448
1629456586181,24908,232842,195441
1629456586191,24908,232837,195431
1629456586201,24914,232871,195431
1629456586211,24904,232865,195432
1629456586221,24911,232875,195416
1629456586231,24912,232904,195428
1629456586241,24913,232895,195402
1629456586251,24920,232915,195404
1629456586261,24926,232894,195416
1629456586271,24923,232930,195390
1629456586281,24928,232910,195369
1629456586291,24929,232925,195403
1629456586301,24939,232967,195368
1629456586311,24943,232971,195398
1629456586321,24949,232972,195386
1629456586331,24954,232959,195398
1629456586341,24962,232994,195377
1629456586351,24954,232989,195372
1629456586361,24964,232964,195358
1629456586371,24947,232943,195367
1629456586381,24933,232908,195351
1629456586391,24905,232869,195338
1629456586401,24878,232846,195321
1629456586411,24855,232783,195328
1629456586421,24825,232772,195302
1629456586431,24797,232704,195285
1629456586441,24773,232697,195286
1629456586451,24754,232669,195245
1629456586461,24731,232635,195250
1629456586471,24706,232599,195269
1629456586481,24688,232573,195242
1629456586491,24659,232568,195210
1629456586501,24644,232536,195233
1629456586511,24619,232513,195190
1629456586521,24593,232496,195210
1629456586531,24570,232455,195198
1629456586541,24559,232416,195180
1629456586551,24534,232365,195142
1629456586561,24520,232396,195141
1629456586571,24499,232352,195153
1629456586581,24490,232370,195121
1629456586591,24477,232366,195137
1629456586601,24480,232345,195126
1629456586611,24471,232389,195109
1629456586621,24473,232336,195122
1629456586631,24463,232382,195122
1629456586641,24461,232344,195072
1629456586651,24459,232330,195094
1629456586661,24454,232338,195111
1629456586671,24446,232354,195096
1629456586681,24446,232312,195127
1629456586691,24447,232319,195106
1629456586701,24447,232332,195117
1629456586711,24434,232312,195105
1629456586721,24453,232336,195140
1629456586731,24455,232346,195138
1629456586741,24448,232364,195141
1629456586751,24460,232389,195160
1629456586761,24465,232397,195162
1629456586771,24462,232386,195131
1629456586781,24464,232442,195133
1629456586791,24469,232378,195160
1629456586801,24481,232424,195152
1629456586811,24486,232454,195196
1629456586821,24494,232435,195193
1629456586831,24501,232459,195217
1629456586841,24510,232495,195211
1629456586851,24528,232483,195218
1629456586861,24543,232547,195248
1629456586871,24548,232554,195226
1629456586881,24557,232579,195254
1629456586891,24569,232594,195255
1629456586901,24587,232636,195295
1629456586911,24606,232627,195310
1629456586921,24620,232643,195331
1629456586931,24642,232728,195349
1629456586941,24659,232728,195384
1629456586951,24674,232774,195415
1629456586961,24692,232820,195421
1629456586971,24711,232838,195463
1629456586981,24722,232865,195448
1629456586991,24737,232881,195476
1629456587001,24759,232901,195505
1629456587011,24765,232897,195477
1629456587021,24780,232937,195492
1629456587031,24775,232886,195485
1629456587041,24766,232882,195466
1629456587051,24748,232867,195477
1629456587061,24733,232827,195446
1629456587071,24717,232773,195452
1629456587081,24701,232765,195446
1629456587091,24675,232703,195466
1629456587101,24658,232685,195431
1629456587111,24637,232671,195468
1629456587121,24623,232685,195458
1629456587131,24606,232633,195439
1629456587141,24587,232599,195456
1629456587151,24572,232570,195441
1629456587161,24551,232578,195442
1629456587171,24544,232576,195427
1629456587181,24523,232555,195437
1629456587191,24509,232491,195403
1629456587201,24485,232529,195404
1629456587211,24477,232493,195397
1629456587221,24462,232471,195383
1629456587231,24453,232446,195390
1629456587241,24441,232436,195384
1629456587251,24434,232459,195378
1629456587261,24434,232444,195355
1629456587271,24433,232448,195387
1629456587281,24438,232485,195370
1629456587291,24440,232470,195367
1629456587301,24442,232461,195366
1629456587311,24442,232476,195348
1629456587321,24442,232442,195362
1629456587331,24446,232475,195353
1629456587341,24445,232457,195334
1629456587351,24429,232439,195338
1629456587361,24436,232453,195320
1629456587371,24426,232433,195337
1629456587381,24436,232465,195345
1629456587391,24439,232455,195351
1629456587401,24446,232438,195329
1629456587411,24449,232458,195362
1629456587421,24449,232473,195372
1629456587431,24452,232447,195350
1629456587441,24457,232434,195358
1629456587451,24460,232472,195353
1629456587461,24466,232469,195347
1629456587471,24465,232445,195345
1629456587481,24467,232473,195319
1629456587491,24476,232469,195315
1629456587501,24472,232430,195311
1629456587511,24477,232448,195293
1629456587521,24481,232448,195318
1629456587531,24486,232443,195279
1629456587541,24494,232499,195295
1629456587551,24498,232480,195305
1629456587561,24498,232480,195276
1629456587571,24504,232456,195290
1629456587581,24514,232453,195264
1629456587591,24512,232472,195278
1629456587601,24521,232473,195280
1629456587611,24525,232467,195255
1629456587621,24530,232474,195257
1629456587631,24539,232496,195248
1629456587641,24541,232461,195234
1629456587651,24545,232473,195214
1629456587661,24554,232458,195208
1629456587671,24552,232453,195220
1629456587681,24551,232474,195184
1629456587691,24537,232417,195163
1629456587701,24525,232366,195136
1629456587711,24499,232311,195125
1629456587721,24474,232258,195120
1629456587731,24453,232208,195065
1629456587741,24421,232173,195078
1629456587751,24402,232151,195039
1629456587761,24384,232078,195045
1629456587771,24360,232044,195037
1629456587781,24341,232019,195031
1629456587791,24329,232024,195019
1629456587801,24315,231988,195002
1629456587811,24289,231958,194982
1629456587821,24278,231885,194985
1629456587831,24264,231857,194980
1629456587841,24244,231894,194941
1629456587851,24219,231830,194902
1629456587861,24202,231766,194888
1629456587871,24187,231738,194857
1629456587881,24179,231757,194859
1629456587891,24174,231709,194824
1629456587901,24161,231707,194768
1629456587911,24146,231690,194776
1629456587921,24145,231709,194766
1629456587931,24146,231684,194747
1629456587941,24150,231661,194723
1629456587951,24152,231753,194743
1629456587961,24149,231674,194701
1629456587971,24150,231661,194683
1629456587981,24153,231664,194671
1629456587991,24146,231663,194670
1629456588001,24155,231637,194678
1629456588011,24150,231655,194664
1629456588021,24157,231671,194662
1629456588031,24163,231643,194645
1629456588041,24166,231664,194683
1629456588051,24180,231674,194702
1629456588061,24186,231686,194704
1629456588071,24191,231712,194699
1629456588081,24197,231719,194724
1629456588091,24214,231764,194737
1629456588101,24225,231751,194736
1629456588111,24236,231769,194760
1629456588121,24251,231781,194765
1629456588131,24264,231820,194782
1629456588141,24268,231824,194770
1629456588151,24282,231800,194776
1629456588161,24287,231827,194783
1629456588171,24305,231845,194813
1629456588181,24319,231881,194793
1629456588191,24335,231912,194818
1629456588201,24345,231931,194837
1629456588211,24358,231923,194844
1629456588221,24371,231927,194848
1629456588231,24389,231945,194857
1629456588241,24402,231988,194892
1629456588251,24415,231994,194929
1629456588261,24434,232051,194916
1629456588271,24446,232055,194947
1629456588281,24466,232047,194977
1629456588291,24474,232055,194986
1629456588301,24500,232083,195007
1629456588311,24507,232126,195014
1629456588321,24531,232149,195022
1629456588331,24537,232193,195031
1629456588341,24553,232151,195038
1629456588351,24564,232172,195039
1629456588361,24574,232173,195017
1629456588371,24577,232177,195044
1629456588381,24578,232137,195017
1629456588391,24570,232093,195011
1629456588401,24545,232077,194975
1629456588411,24524,232045,194980
1629456588421,24518,232023,194961
1629456588431,24493,231952,194964
1629456588441,24476,231937,194941
1629456588451,24460,231890,194909
1629456588461,24446,231828,194875
1629456588471,24428,231802,194895
1629456588481,24403,231807,194845
1629456588491,24385,231749,194848
1629456588501,24369,231743,194838
1629456588511,24360,231675,194817
1629456588521,24344,231665,194823
1629456588531,24327,231642,194759
1629456588541,24313,231626,194791
1629456588551,24305,231590,194795
1629456588561,24293,231590,194771
1629456588571,24288,231576,194783
1629456588581,24275,231572,194751
1629456588591,24269,231557,194756
1629456588601,24272,231572,194758
1629456588611,24275,231577,194739
1629456588621,24287,231599,194739
1629456588631,24295,231573,194742
1629456588641,24306,231565,194758
1629456588651,24300,231600,194741
1629456588661,24301,231605,194755
1629456588671,24328,231625,194786
1629456588681,24323,231624,194787
1629456588691,24337,231645,194809
1629456588701,24336,231649,194818
1629456588711,24355,231670,194836
1629456588721,24369,231688,194857
1629456588731,24389,231722,194914
1629456588741,24403,231792,194934
1629456588751,24421,231818,194974
1629456588761,24438,231827,195045
1629456588771,24458,231837,195052
1629456588781,24481,231900,195081
1629456588791,24486,231908,195105
1629456588801,24511,231933,195130
1629456588811,24519,231936,195124
1629456588821,24547,231983,195159
1629456588831,24550,231986,195159
1629456588841,24567,232041,195183
1629456588851,24579,232061,195202
1629456588861,24592,232094,195184
1629456588871,24600,232075,195162
1629456588881,24614,232088,195213
1629456588891,24624,232087,195151
1629456588901,24628,232118,195171
1629456588911,24641,232104,195157
1629456588921,24647,232124,195152
1629456588931,24658,232134,195132
1629456588941,24672,232152,195148
1629456588951,24687,232207,195147
1629456588961,24701,232230,195185
1629456588971,24725,232204,195194
1629456588981,24725,232285,195198
1629456588991,24751,232266,195215
1629456589001,24768,232287,195205
1629456589011,24769,232275,195202
1629456589021,24771,232310,195198
1629456589031,24790,232322,195185
1629456589041,24799,232308,195180
1629456589051,24804,232314,195175
1629456589061,24813,232305,195169
1629456589071,24826,232352,195184
1629456589081,24837,232390,195193
1629456589091,24853,232402,195224
1629456589101,24863,232389,195216
1629456589111,24864,232355,195220
1629456589121,24856,232355,195239
1629456589131,24849,232298,195239
1629456589141,24830,232270,195252
1629456589151,24835,232269,195244
1629456589161,24817,232236,195240
1629456589171,24818,232260,195243
1629456589181,24812,232198,195293
1629456589191,24815,232201,195285
1629456589201,24810,232171,195278
1629456589211,24806,232178,195299
1629456589221,24800,232173,195270
1629456589231,24781,232137,195280
1629456589241,24772,232087,195244
1629456589251,24758,232065,195249
1629456589261,24750,232072,195215
1629456589271,24744,232040,195233
1629456589281,24726,232052,195191
1629456589291,24717,232044,195204
1629456589301,24720,231984,195199
1629456589311,24724,232030,195193
1629456589321,24721,232017,195209
1629456589331,24719,232009,195205
1629456589341,24726,232020,195183
1629456589351,24741,232029,195221
1629456589361,24745,232056,195230
1629456589371,24752,232081,195238
1629456589381,24758,232094,195214
1629456589391,24765,232081,195220
1629456589401,24777,232100,195238
1629456589411,24782,232102,195246
1629456589421,24794,232086,195254
1629456589431,24801,232148,195242
1629456589441,24823,232151,195236
1629456589451,24830,232169,195259
1629456589461,24846,232191,195240
1629456589471,24846,232188,195272
1629456589481,24859,232223,195264
1629456589491,24871,232222,195306
1629456589501,24887,232282,195310
1629456589511,24904,232312,195291
1629456589521,24911,232279,195340
1629456589531,24932,232341,195355
1629456589541,24947,232343,195377
1629456589551,24970,232353,195396
1629456589561,24987,232433,195424
1629456589571,25011,232484,195465
1629456589581,25030,232497,195483
1629456589591,25055,232539,195526
1629456589601,25088,232574,195564
1629456589611,25117,232647,195602
1629456589621,25139,232711,195635
1629456589631,25164,232702,195711
1629456589641,25195,232759,195763
1629456589651,25228,232810,195794
1629456589661,25261,232859,195851
1629456589671,25302,232965,195929
1629456589681,25338,233015,195996
1629456589691,25380,233053,196016
1629456589701,25416,233137,196103
1629456589711,25458,233240,196156
1629456589721,25496,233336,196219
1629456589731,25534,233397,196256
1629456589741,25575,233447,196342
1629456589751,25618,233529,196412
1629456589761,25655,233628,196463
1629456589771,25698,233689,196498
1629456589781,25737,233739,196541
1629456589791,25767,233773,196574
1629456589801,25792,233875,196624
1629456589811,25821,233854,196621
1629456589821,25855,233951,196709
1629456589831,25883,234027,196727
1629456589841,25916,234071,196767
1629456589851,25944,234129,196835
1629456589861,25958,234157,196843
1629456589871,25975,234154,196827
1629456589881,25972,234152,196825
1629456589891,25967,234082,196837
1629456589901,25960,234071,196829
1629456589911,25950,234038,196797
1629456589921,25942,234028,196801
1629456589931,25936,234015,196806
1629456589941,25929,233985,196810
1629456589951,25920,233968,196772
1629456589961,25918,233943,196796
1629456589971,25899,233983,196810
1629456589981,25894,233925,196794
1629456589991,25881,233950,196777
1629456590001,25877,233908,196787
1629456590011,25869,233887,196799
1629456590021,25855,233878,196815
1629456590031,25852,233879,196817
1629456590041,25839,233899,196849
1629456590051,25839,233886,196868
1629456590061,25841,233909,196881
1629456590071,25827,233889,196897
1629456590081,25831,233916,196910
1629456590091,25831,233927,196929
1629456590101,25833,233964,196912
1629456590111,25838,233966,196929
1629456590121,25834,233960,196944
1629456590131,25823,233937,196937
1629456590141,25826,233966,196923
1629456590151,25819,233949,196924
1629456590161,25811,233977,196950
1629456590171,25803,233973,196917
1629456590181,25803,233949,196937
1629456590191,25798,233913,196899
1629456590201,25789,233888,196896
1629456590211,25779,233944,196886
1629456590221,25774,233923,196869
1629456590231,25765,233885,196864
1629456590241,25756,233878,196827
1629456590251,25744,233846,196791
1629456590261,25738,233857,196817
1629456590271,25728,233849,196788
1629456590281,25736,233850,196767
1629456590291,25728,233829,196762
1629456590301,25716,233852,196751
1629456590311,25720,233871,196746
1629456590321,25718,233882,196768
1629456590331,25723,233874,196781
1629456590341,25722,233876,196788
1629456590351,25724,233898,196772
1629456590361,25716,233897,196772
1629456590371,25714,233863,196761
1629456590381,25716,233851,196735
1629456590391,25709,233869,196760
1629456590401,25705,233869,196727
1629456590411,25703,233894,196714
1629456590421,25708,233852,196697
1629456590431,25699,233868,196680
1629456590441,25691,233874,196648
1629456590451,25683,233826,196633
1629456590461,25667,233851,196588
1629456590471,25658,233835,196581
1629456590481,25649,233797,196561
1629456590491,25638,233773,196521
1629456590501,25636,233793,196536
1629456590511,25632,233771,196513
1629456590521,25627,233787,196539
1629456590531,25630,233823,196510
1629456590541,25628,233791,196503
1629456590551,25623,233744,196500
1629456590561,25610,233766,196475
1629456590571,25608,233742,196450
1629456590581,25605,233757,196425
1629456590591,25587,233687,196412
1629456590601,25576,233673,196369
1629456590611,25560,233638,196357
1629456590621,25545,233591,196325
1629456590631,25503,233538,196274
1629456590641,25459,233478,196247
1629456590651,25426,233448,196203
1629456590661,25378,233362,196194
1629456590671,25337,233311,196093
1629456590681,25297,233277,196032
1629456590691,25244,233202,196005
1629456590701,25204,233123,195953
1629456590711,25150,233061,195890
1629456590721,25103,233009,195823
1629456590731,25049,232902,195747
1629456590741,25004,232885,195690
1629456590751,24946,232766,195581
1629456590761,24896,232748,195505
1629456590771,24831,232667,195451
1629456590781,24789,232584,195407
1629456590791,24738,232532,195343
1629456590801,24686,232477,195263
1629456590811,24643,232476,195253
1629456590821,24602,232412,195237
1629456590831,24575,232370,195192
1629456590841,24544,232371,195178
1629456590851,24528,232324,195154
1629456590861,24512,232320,195146
1629456590871,24489,232338,195127
1629456590881,24467,232296,195083
1629456590891,24449,232236,195095
1629456590901,24431,232255,195101
1629456590911,24413,232272,195089
1629456590921,24396,232244,195072
1629456590931,24368,232228,195037
1629456590941,24356,232166,195051
1629456590951,24344,232140,195061
1629456590961,24325,232149,195088
1629456590971,24315,232157,195077
1629456590981,24310,232124,195068
1629456590991,24305,232136,195056
1629456591001,24300,232105,195074
1629456591011,24290,232073,195054
1629456591021,24286,232085,195031
1629456591031,24275,232085,195021
1629456591041,24269,232057,194998
1629456591051,24256,232043,194982
1629456591061,24245,232031,194944
1629456591071,24236,232026,194885
1629456591081,24224,232010,194891
1629456591091,24228,231988,194889
1629456591101,24224,232029,194893
1629456591111,24228,231993,194870
1629456591121,24227,232018,194894
1629456591131,24229,232037,194897
1629456591141,24230,232020,194892
1629456591151,24228,232047,194906
1629456591161,24235,232066,194930
1629456591171,24243,232098,194942
1629456591181,24251,232056,194924
1629456591191,24247,232072,194954
1629456591201,24256,232135,194975
1629456591211,24261,232085,194983
1629456591221,24279,232122,194979
1629456591231,24275,232125,194990
1629456591241,24278,232127,195009
1629456591251,24288,232126,195007
1629456591261,24299,232161,195047
1629456591271,24319,232192,195103
1629456591281,24337,232234,195145
1629456591291,24352,232236,195165
1629456591301,24367,232258,195238
1629456591311,24387,232334,195267
1629456591321,24405,232345,195348
1629456591331,24423,232388,195423
1629456591341,24449,232420,195513
1629456591351,24477,232451,195575
1629456591361,24505,232499,195639
1629456591371,24527,232549,195718
1629456591381,24544,232567,195758
1629456591391,24561,232624,195821
1629456591401,24568,232604,195837
1629456591411,24584,232632,195875
1629456591421,24603,232673,195901
1629456591431,24629,232670,195934
1629456591441,24639,232675,195958
1629456591451,24651,232708,195947
1629456591461,24652,232703,195943
1629456591471,24654,232719,195907
1629456591481,24658,232738,195904
1629456591491,24658,232704,195861
1629456591501,24657,232691,195803
1629456591511,24632,232639,195742
1629456591521,24604,232599,195652
1629456591531,24558,232500,195567
1629456591541,24514,232468,195493
1629456591551,24478,232403,195478
1629456591561,24440,232358,195435
1629456591571,24392,232339,195401
1629456591581,24355,232276,195386
1629456591591,24319,232227,195352
1629456591601,24272,232159,195324
1629456591611,24231,232117,195319
1629456591621,24193,232056,195278
1629456591631,24156,232003,195259
1629456591641,24110,231985,195216
1629456591651,24077,231910,195194
1629456591661,24037,231900,195218
1629456591671,24011,231825,195203
1629456591681,23990,231859,195243
1629456591691,23977,231809,195256
1629456591701,23966,231849,195313
1629456591711,23950,231827,195329
1629456591721,23947,231833,195332
1629456591731,23939,231857,195388
1629456591741,23947,231911,195424
1629456591751,23956,231959,195508
1629456591761,23980,232004,195534
1629456591771,23998,232052,195602
1629456591781,24019,232096,195636
1629456591791,24028,232144,195676
1629456591801,24042,232178,195710
1629456591811,24050,232189,195679
1629456591821,24044,232217,195711
1629456591831,24047,232233,195658
1629456591841,24045,232264,195693
1629456591851,24043,232230,195701
1629456591861,24049,232314,195677
1629456591871,24038,232286,195636
1629456591881,24047,232313,195662
1629456591891,24042,232319,195649
1629456591901,24053,232339,195654
1629456591911,24051,232362,195646
1629456591921,24062,232393,195670
1629456591931,24076,232444,195705
1629456591941,24092,232443,195740
1629456591951,24112,232475,195767
1629456591961,24116,232534,195822
1629456591971,24135,232544,195821
1629456591981,24145,232562,195823
1629456591991,24154,232555,195847
1629456592001,24166,232594,195869
1629456592011,24183,232622,195856
1629456592021,24200,232629,195870
1629456592031,24213,232669,195885
1629456592041,24231,232727,195915
1629456592051,24239,232697,195957
1629456592061,24262,232753,195984
1629456592071,24273,232771,195994
1629456592081,24296,232805,195998
1629456592091,24310,232833,196040
1629456592101,24326,232845,196036
1629456592111,24336,232813,196040
1629456592121,24345,232899,196040
1629456592131,24367,232913,196098
1629456592141,24387,232951,196132
1629456592151,24399,232963,196143
1629456592161,24421,232971,196163
1629456592171,24442,233021,196192
1629456592181,24458,233034,196207
1629456592191,24472,233043,196271
1629456592201,24500,233084,196267
1629456592211,24513,233113,196319
1629456592221,24536,233127,196327
1629456592231,24546,233166,196321
1629456592241,24551,233148,196313
1629456592251,24575,233183,196323
1629456592261,24585,233202,196340
1629456592271,24606,233211,196329
1629456592281,24612,233234,196335
1629456592291,24635,233277,196364
1629456592301,24643,233282,196384
1629456592311,24662,233306,196406
1629456592321,24685,233306,196452
1629456592331,24702,233334,196484
1629456592341,24705,233363,196501
1629456592351,24699,233312,196502
1629456592361,24675,233272,196493
1629456592371,24659,233194,196482
1629456592381,24620,233155,196430
1629456592391,24590,233076,196454
1629456592401,24561,233012,196428
1629456592411,24525,232983,196412
1629456592421,24500,232946,196405
1629456592431,24459,232878,196364
1629456592441,24426,232842,196361
1629456592451,24389,232770,196311
1629456592461,24352,232720,196279
1629456592471,24319,232680,196237
1629456592481,24280,232626,196183
1629456592491,24238,232581,196131
1629456592501,24201,232518,196085
1629456592511,24168,232445,196035
1629456592521,24135,232414,195995
1629456592531,24102,232362,195945
1629456592541,24080,232345,195909
1629456592551,24056,232308,195922
1629456592561,24036,232252,195883
1629456592571,24023,232227,195864
1629456592581,24024,232251,195826
1629456592591,24022,232239,195850
1629456592601,24026,232242,195843
1629456592611,24029,232218,195824
1629456592621,24023,232223,195815
1629456592631,24028,232210,195784
1629456592641,24028,232171,195793
1629456592651,24027,232190,195764
1629456592661,24025,232125,195742
1629456592671,24030,232103,195761
1629456592681,24031,232139,195732
1629456592691,24033,232158,195760
1629456592701,24033,232123,195749
1629456592711,24048,232121,195750
1629456592721,24046,232153,195757
1629456592731,24063,232173,195719
1629456592741,24066,232170,195732
1629456592751,24072,232160,195725
1629456592761,24086,232205,195753
1629456592771,24101,232193,195735
1629456592781,24113,232250,195754
1629456592791,24128,232286,195762
1629456592801,24146,232281,195800
1629456592811,24165,232303,195743
1629456592821,24174,232306,195763
1629456592831,24189,232360,195752
1629456592841,24197,232386,195722
1629456592851,24225,232391,195746
1629456592861,24245,232467,195745
1629456592871,24244,232439,195769
1629456592881,24272,232472,195798
1629456592891,24286,232511,195794
1629456592901,24304,232506,195798
1629456592911,24315,232557,195799
1629456592921,24337,232568,195837
1629456592931,24351,232566,195852
1629456592941,24364,232574,195822
1629456592951,24381,232597,195817
1629456592961,24382,232620,195820
1629456592971,24391,232589,195791
1629456592981,24388,232642,195756
1629456592991,24388,232644,195727
1629456593001,24392,232620,195723
1629456593011,24398,232635,195733
1629456593021,24416,232620,195776
1629456593031,24432,232655,195808
1629456593041,24444,232623,195839
1629456593051,24451,232644,195849
1629456593061,24459,232611,195884
1629456593071,24466,232605,195909
1629456593081,24475,232596,195935
1629456593091,24486,232572,195953
1629456593101,24491,232603,195954
1629456593111,24497,232623,195941
1629456593121,24493,232581,195944
1629456593131,24498,232565,195929
1629456593141,24510,232625,195959
1629456593151,24524,232642,195959
1629456593161,24538,232642,196017
1629456593171,24559,232689,196011
1629456593181,24578,232646,196061
1629456593191,24581,232669,196040
1629456593201,24572,232656,196022
1629456593211,24562,232574,196035
1629456593221,24530,232563,196023
1629456593231,24524,232518,196058
1629456593241,24505,232469,196051
1629456593251,24483,232416,196064
1629456593261,24462,232351,196055
1629456593271,24432,232315,196058
1629456593281,24408,232293,196086
1629456593291,24391,232246,196080
1629456593301,24378,232210,196072
1629456593311,24361,232164,196055
1629456593321,24335,232134,196063
1629456593331,24301,232060,196017
1629456593341,24271,232061,195952
1629456593351,24243,231979,195889
1629456593361,24210,231962,195844
1629456593371,24183,231933,195795
1629456593381,24162,231875,195767
1629456593391,24147,231830,195751
1629456593401,24126,231825,195724
1629456593411,24116,231832,195695
1629456593421,24119,231822,195689
1629456593431,24122,231838,195687
1629456593441,24122,231845,195658
1629456593451,24129,231838,195688
1629456593461,24125,231804,195650
1629456593471,24120,231790,195650
1629456593481,24126,231826,195630
1629456593491,24131,231810,195661
1629456593501,24154,231862,195709
1629456593511,24177,231868,195775
1629456593521,24204,231879,195832
1629456593531,24219,231886,195875
1629456593541,24224,231938,195878
1629456593551,24220,231901,195799
1629456593561,24216,231899,195765
1629456593571,24217,231930,195736
1629456593581,24233,231973,195817
1629456593591,24255,232029,195876
1629456593601,24290,232093,195977
1629456593611,24327,232103,196068
1629456593621,24373,232190,196137
1629456593631,24403,232292,196191
1629456593641,24438,232334,196249
1629456593651,24470,232416,196291
1629456593661,24505,232457,196311
1629456593671,24523,232538,196345
1629456593681,24566,232618,196403
1629456593691,24598,232710,196436
1629456593701,24626,232743,196495
1629456593711,24662,232845,196564
1629456593721,24688,232913,196592
1629456593731,24708,232969,196589
1629456593741,24724,233015,196592
1629456593751,24727,233014,196580
1629456593761,24741,233022,196526
1629456593771,24730,233104,196460
1629456593781,24727,233102,196431
1629456593791,24726,233070,196419
1629456593801,24734,233105,196413
1629456593811,24746,233118,196423
1629456593821,24751,233113,196421
1629456593831,24752,233104,196385
1629456593841,24756,233116,196380
1629456593851,24759,233068,196329
1629456593861,24741,233090,196275
1629456593871,24740,233073,196260
1629456593881,24740,233000,196217
1629456593891,24724,233032,196202
1629456593901,24713,232964,196184
1629456593911,24690,232917,196159
1629456593921,24652,232807,196089
1629456593931,24608,232773,196014
1629456593941,24561,232670,195972
1629456593951,24509,232599,195878
1629456593961,24462,232538,195871
1629456593971,24423,232499,195790
1629456593981,24389,232453,195773
1629456593991,24356,232425,195785
1629456594001,24338,232383,195781
1629456594011,24310,232322,195750
1629456594021,24264,232256,195717
1629456594031,24237,232188,195689
1629456594041,24223,232147,195711
1629456594051,24200,232116,195719
1629456594061,24189,232126,195735
1629456594071,24182,232090,195804
1629456594081,24174,232071,195819
1629456594091,24160,231999,195822
1629456594101,24143,231949,195838
1629456594111,24125,231907,195813
1629456594121,24121,231876,195829
1629456594131,24118,231887,195852
1629456594141,24130,231876,195873
1629456594151,24141,231909,195912
1629456594161,24138,231881,195904
1629456594171,24140,231879,195925
1629456594181,24140,231946,195935
1629456594191,24143,231923,195910
1629456594201,24155,231941,195928
1629456594211,24159,231955,195903
1629456594221,24164,231938,195915
1629456594231,24165,231943,195912
1629456594241,24170,231944,195911
1629456594251,24169,231952,195903
1629456594261,24166,231908,195875
1629456594271,24168,231906,195877
1629456594281,24160,231958,195884
1629456594291,24166,231909,195837
1629456594301,24166,231899,195826
1629456594311,24182,231905,195851
1629456594321,24193,231912,195870
1629456594331,24219,231979,195901
1629456594341,24253,232071,196010
1629456594351,24297,232087,196097
1629456594361,24322,232181,196164
1629456594371,24348,232199,196209
1629456594381,24379,232255,196288
1629456594391,24406,232322,196343
1629456594401,24428,232346,196410
1629456594411,24452,232399,196414
1629456594421,24479,232482,196476
1629456594431,24507,232496,196514
1629456594441,24516,232544,196515
1629456594451,24542,232541,196583
1629456594461,24560,232607,196571
1629456594471,24575,232578,196596
1629456594481,24586,232583,196631
1629456594491,24616,232597,196665
1629456594501,24640,232598,196736
1629456594511,24667,232563,196759
1629456594521,24683,232569,196829
1629456594531,24701,232538,196838
1629456594541,24695,232473,196822
1629456594551,24685,232383,196800
1629456594561,24668,232329,196754
1629456594571,24629,232220,196718
1629456594581,24594,232115,196670
1629456594591,24555,232063,196673
1629456594601,24520,231976,196643
1629456594611,24473,231905,196623
1629456594621,24436,231810,196574
1629456594631,24389,231723,196489
1629456594641,24340,231623,196426
1629456594651,24280,231533,196356
1629456594661,24229,231436,196285
1629456594671,24175,231356,196157
1629456594681,24117,231265,196078
1629456594691,24084,231155,195994
1629456594701,24023,231088,195899
1629456594711,23980,231063,195843
1629456594721,23926,231022,195769
1629456594731,23882,230941,195678
1629456594741,23846,230897,195591
1629456594751,23807,230853,195558
1629456594761,23773,230795,195477
1629456594771,23745,230745,195442
1629456594781,23722,230757,195385
1629456594791,23700,230722,195345
1629456594801,23689,230745,195307
1629456594811,23668,230771,195231
1629456594821,23652,230741,195179
1629456594831,23635,230790,195102
1629456594841,23609,230806,195076
1629456594851,23600,230787,195041
1629456594861,23576,230821,195011
1629456594871,23558,230772,194983
1629456594881,23545,230877,194927
1629456594891,23519,230832,194921
1629456594901,23506,230855,194904
1629456594911,23496,230869,194869
1629456594921,23493,230868,194912
1629456594931,23493,230903,194916
1629456594941,23495,230854,194949
1629456594951,23482,230865,194948
1629456594961,23475,230856,194950
1629456594971,23475,230850,194935
1629456594981,23458,230849,194953
1629456594991,23454,230817,194940
1629456595001,23452,230792,194917
1629456595011,23441,230801,194901
1629456595021,23434,230753,194908
1629456595031,23429,230741,194910
1629456595041,23427,230776,194899
1629456595051,23421,230734,194881
1629456595061,23411,230672,194888
1629456595071,23410,230661,194867
1629456595081,23398,230654,194877
1629456595091,23405,230622,194874
1629456595101,23392,230618,194853
1629456595111,23388,230582,194846
1629456595121,23386,230606,194847
1629456595131,23388,230582,194848
1629456595141,23394,230584,194840
1629456595151,23393,230569,194836
1629456595161,23401,230555,194845
1629456595171,23394,230500,194844
1629456595181,23386,230481,194839
1629456595191,23373,230479,194824
1629456595201,23350,230373,194808
1629456595211,23320,230334,194766
1629456595221,23283,230239,194740
1629456595231,23244,230104,194704
1629456595241,23201,230043,194646
1629456595251,23158,230006,194623
1629456595261,23119,229915,194595
1629456595271,23085,229855,194520
1629456595281,23047,229759,194488
1629456595291,23006,229672,194441
1629456595301,22963,229581,194383
1629456595311,22916,229464,194325
1629456595321,22872,229386,194237
1629456595331,22817,229262,194180
1629456595341,22774,229188,194098
1629456595351,22728,229064,194054
1629456595361,22681,228956,193928
1629456595371,22639,228903,193859
1629456595381,22585,228801,193808
1629456595391,22560,228737,193753
1629456595401,22528,228672,193696
1629456595411,22502,228611,193662
1629456595421,22482,228609,193616
1629456595431,22473,228588,193589
1629456595441,22460,228537,193559
1629456595451,22468,228519,193571
1629456595461,22460,228487,193536
1629456595471,22453,228502,193508
1629456595481,22442,228456,193509
1629456595491,22439,228461,193488
1629456595501,22432,228426,193504
1629456595511,22430,228419,193465
1629456595521,22417,228391,193435
1629456595531,22407,228400,193426
1629456595541,22405,228356,193429
1629456595551,22405,228344,193403
1629456595561,22397,228344,193371
1629456595571,22399,228296,193394
1629456595581,22406,228322,193357
1629456595591,22413,228319,193383
1629456595601,22417,228341,193387
1629456595611,22425,228336,193427
1629456595621,22434,228376,193437
1629456595631,22448,228358,193457
1629456595641,22464,228386,193459
1629456595651,22471,228390,193493
1629456595661,22479,228346,193500
1629456595671,22492,228397,193505
1629456595681,22503,228414,193525
1629456595691,22508,228447,193558
1629456595701,22529,228469,193542
1629456595711,22535,228480,193529
1629456595721,22544,228465,193548
1629456595731,22552,228495,193555
1629456595741,22565,228517,193551
1629456595751,22580,228542,193537
1629456595761,22588,228542,193533
1629456595771,22589,228621,193524
1629456595781,22612,228597,193545
1629456595791,22609,228635,193559
1629456595801,22610,228663,193512
1629456595811,22614,228670,193493
1629456595821,22615,228667,193500
1629456595831,22624,228738,193524
1629456595841,22643,228761,193524
1629456595851,22651,228745,193546
1629456595861,22661,228773,193564
1629456595871,22680,228806,193583
1629456595881,22685,228843,193592
1629456595891,22690,228865,193591
1629456595901,22712,228929,193615
1629456595911,22717,228900,193602
1629456595921,22719,228907,193582
1629456595931,22718,228913,193590
1629456595941,22704,228842,193588
1629456595951,22690,228819,193573
1629456595961,22643,228657,193490
1629456595971,22598,228511,193399
1629456595981,22517,228331,193248
1629456595991,22444,228217,193088
1629456596001,22368,228062,192930
1629456596011,22324,228027,192827
1629456596021,22295,227986,192740
1629456596031,22266,227954,192708
1629456596041,22267,228042,192729
1629456596051,22271,228070,192770
1629456596061,22296,228152,192823
1629456596071,22316,228197,192912
1629456596081,22350,228268,193013
1629456596091,22371,228278,193049
1629456596101,22399,228323,193139
1629456596111,22431,228441,193199
1629456596121,22461,228525,193341
1629456596131,22509,228611,193497
1629456596141,22566,228771,193718
1629456596151,22653,228888,193927
1629456596161,22736,229041,194202
1629456596171,22829,229193,194453
1629456596181,22914,229292,194627
1629456596191,22999,229425,194838
1629456596201,23093,229548,195104
1629456596211,23184,229672,195311
1629456596221,23274,229785,195499
1629456596231,23350,229872,195679
1629456596241,23402,229934,195815
1629456596251,23458,229990,195922
1629456596261,23492,230064,196008
1629456596271,23533,230086,196080
1629456596281,23576,230164,196133
1629456596291,23612,230213,196198
1629456596301,23626,230199,196212
1629456596311,23656,230223,196177
1629456596321,23679,230216,196212
1629456596331,23708,230229,196214
1629456596341,23730,230251,196209
1629456596351,23743,230231,196167
1629456596361,23758,230281,196165
1629456596371,23780,230239,196124
1629456596381,23802,230271,196104
1629456596391,23821,230314,196097
1629456596401,23840,230342,196057
1629456596411,23853,230346,195996
1629456596421,23850,230406,195962
1629456596431,23864,230412,195941
1629456596441,23892,230445,195964
1629456596451,23906,230427,195990
1629456596461,23930,230502,196013
1629456596471,23955,230523,196049
1629456596481,23978,230618,196096
1629456596491,23991,230559,196073
1629456596501,24002,230650,196090
1629456596511,24007,230622,196092
1629456596521,24013,230616,196077
1629456596531,24020,230587,196070
1629456596541,24033,230656,196059
1629456596551,24041,230663,196071
1629456596561,24055,230689,196049
1629456596571,24071,230694,196069
1629456596581,24090,230709,196068
1629456596591,24100,230693,196067
1629456596601,24115,230741,196069
1629456596611,24118,230783,196058
1629456596621,24136,230805,196095
1629456596631,24150,230803,196111
1629456596641,24165,230807,196133
1629456596651,24180,230863,196178
1629456596661,24194,230888,196179
1629456596671,24190,230857,196144
1629456596681,24183,230852,196174
1629456596691,24171,230749,196164
1629456596701,24133,230687,196165
1629456596711,24105,230650,196148
1629456596721,24081,230624,196139
1629456596731,24052,230572,196116
1629456596741,24025,230500,196179
1629456596751,23999,230502,196148
1629456596761,23986,230457,196148
1629456596771,23973,230427,196204
1629456596781,23961,230431,196235
1629456596791,23951,230363,196250
1629456596801,23942,230370,196291
1629456596811,23931,230359,196301
1629456596821,23921,230343,196328
1629456596831,23911,230325,196350
1629456596841,23904,230336,196354
1629456596851,23894,230299,196405
1629456596861,23884,230259,196388
1629456596871,23866,230245,196353
1629456596881,23855,230203,196350
1629456596891,23854,230240,196340
1629456596901,23850,230219,196327
1629456596911,23843,230201,196319
1629456596921,23833,230219,196268
1629456596931,23850,230223,196281
1629456596941,23850,230236,196284
1629456596951,23845,230236,196267
1629456596961,23830,230253,196234
1629456596971,23843,230262,196237
1629456596981,23839,230307,196248
1629456596991,23850,230330,196252
1629456597001,23861,230337,196235
1629456597011,23863,230334,196244
1629456597021,23872,230336,196207
1629456597031,23873,230327,196208
1629456597041,23881,230323,196157
1629456597051,23882,230334,196132
1629456597061,23889,230339,196078
1629456597071,23895,230332,196075
1629456597081,23900,230335,196077
1629456597091,23915,230365,196099
1629456597101,23916,230418,196145
1629456597111,23935,230410,196158
1629456597121,23954,230434,196191
1629456597131,23950,230430,196179
1629456597141,23960,230472,196187
1629456597151,23961,230471,196197
1629456597161,23971,230467,196211
1629456597171,23985,230503,196244
1629456597181,24000,230529,196284
1629456597191,24015,230548,196290
1629456597201,24030,230552,196328
1629456597211,24045,230590,196368
1629456597221,24066,230578,196386
1629456597231,24079,230610,196414
1629456597241,24089,230662,196438
1629456597251,24110,230679,196462
1629456597261,24131,230761,196514
1629456597271,24149,230773,196545
1629456597281,24173,230773,196599
1629456597291,24191,230794,196646
1629456597301,24210,230815,196660
1629456597311,24221,230830,196624
1629456597321,24225,230841,196635
1629456597331,24232,230828,196629
1629456597341,24253,230833,196630
1629456597351,24266,230876,196642
1629456597361,24287,230940,196680
1629456597371,24292,230976,196667
1629456597381,24310,231001,196677
1629456597391,24327,231043,196688
1629456597401,24332,231067,196659
1629456597411,24338,231076,196688
1629456597421,24350,231153,196701
1629456597431,24359,231157,196749
1629456597441,24386,231253,196801
1629456597451,24413,231315,196908
1629456597461,24450,231397,197021
1629456597471,24486,231490,197093
1629456597481,24506,231477,197178
1629456597491,24511,231512,197241
1629456597501,24525,231494,197334
1629456597511,24527,231477,197389
1629456597521,24524,231428,197457
1629456597531,24520,231410,197522
1629456597541,24503,231409,197531
1629456597551,24488,231339,197581
1629456597561,24458,231241,197604
1629456597571,24446,231221,197613
1629456597581,24440,231202,197599
1629456597591,24413,231132,197596
1629456597601,24401,231093,197573
1629456597611,24379,231076,197543
1629456597621,24361,231026,197471
1629456597631,24343,230971,197467
1629456597641,24341,230957,197441
1629456597651,24346,230958,197436
1629456597661,24366,230987,197471
1629456597671,24384,230991,197465
1629456597681,24408,231008,197477
1629456597691,24420,231068,197444
1629456597701,24442,231093,197470
1629456597711,24459,231109,197477
1629456597721,24497,231185,197505
1629456597731,24515,231244,197539
1629456597741,24543,231239,197529
1629456597751,24560,231309,197561
1629456597761,24577,231351,197542
1629456597771,24584,231369,197527
1629456597781,24597,231435,197478
1629456597791,24594,231391,197421
1629456597801,24595,231373,197396
1629456597811,24595,231423,197358
1629456597821,24592,231420,197345
1629456597831,24579,231411,197291
1629456597841,24568,231404,197218
1629456597851,24550,231382,197172
1629456597861,24547,231363,197101
1629456597871,24537,231352,197077
1629456597881,24530,231331,197058
1629456597891,24547,231361,197031
1629456597901,24542,231351,197042
1629456597911,24545,231336,197043
1629456597921,24558,231352,197067
1629456597931,24569,231337,197074
1629456597941,24559,231305,197092
1629456597951,24565,231316,197109
1629456597961,24582,231368,197133
1629456597971,24588,231352,197145
1629456597981,24591,231373,197148
1629456597991,24592,231362,197132
1629456598001,24609,231372,197159
1629456598011,24611,231393,197155
1629456598021,24620,231392,197157
1629456598031,24625,231404,197137
1629456598041,24635,231386,197136
1629456598051,24642,231387,197150
1629456598061,24668,231435,197174
1629456598071,24683,231454,197227
1629456598081,24696,231453,197266
1629456598091,24714,231476,197260
1629456598101,24731,231486,197290
1629456598111,24732,231485,197283
1629456598121,24735,231492,197268
1629456598131,24727,231436,197183
1629456598141,24728,231438,197169
1629456598151,24719,231405,197122
1629456598161,24709,231409,197087
1629456598171,24714,231374,197060
1629456598181,24710,231391,196999
1629456598191,24703,231394,196936
1629456598201,24718,231413,196884
1629456598211,24733,231486,196899
1629456598221,24756,231506,196884
1629456598231,24783,231604,196930
1629456598241,24821,231646,196978
1629456598251,24855,231692,197021
1629456598261,24890,231770,197096
1629456598271,24914,231761,197143
1629456598281,24934,231818,197216
1629456598291,24955,231772,197262
1629456598301,24940,231765,197378
1629456598311,24963,231798,197454
1629456598321,24979,231833,197551
1629456598331,24997,231822,197664
1629456598341,25018,231904,197794
1629456598351,25043,231917,197921
1629456598361,25080,231995,198053
1629456598371,25098,232017,198174
1629456598381,25125,232048,198248
1629456598391,25134,232097,198312
1629456598401,25141,232093,198341
1629456598411,25141,232132,198342
1629456598421,25131,232104,198318
1629456598431,25108,232062,198266
1629456598441,25095,232048,198233
1629456598451,25091,232034,198232
1629456598461,25091,232030,198261
1629456598471,25085,231954,198281
1629456598481,25075,231941,198286
1629456598491,25075,231948,198251
1629456598501,25072,231909,198262
1629456598511,25067,231898,198239
1629456598521,25077,231896,198254
1629456598531,25064,231891,198236
1629456598541,25072,231916,198277
1629456598551,25084,231924,198279
1629456598561,25080,231930,198334
1629456598571,25082,231934,198332
1629456598581,25088,231924,198334
1629456598591,25100,231919,198327
1629456598601,25092,231925,198343
1629456598611,25099,231973,198375
1629456598621,25105,231991,198420
1629456598631,25118,232018,198479
1629456598641,25134,232077,198523
1629456598651,25143,232093,198579
1629456598661,25161,232112,198612
1629456598671,25171,232133,198648
1629456598681,25182,232176,198691
1629456598691,25199,232228,198708
1629456598701,25209,232244,198728
1629456598711,25213,232252,198751
1629456598721,25216,232242,198721
1629456598731,25236,232257,198736
1629456598741,25238,232267,198757
1629456598751,25238,232246,198738
1629456598761,25244,232270,198706
1629456598771,25247,232276,198646
1629456598781,25240,232221,198632
1629456598791,25248,232304,198612
1629456598801,25255,232294,198599
1629456598811,25266,232319,198604
1629456598821,25273,232317,198566
1629456598831,25279,232318,198502
1629456598841,25275,232339,198459
1629456598851,25280,232295,198394
1629456598861,25276,232296,198344
1629456598871,25289,232313,198324
1629456598881,25289,232325,198316
1629456598891,25290,232313,198291
1629456598901,25293,232320,198251
1629456598911,25288,232250,198188
1629456598921,25249,232209,198054
1629456598931,25208,232065,197861
1629456598941,25135,231882,197668
1629456598951,25065,231720,197505
1629456598961,25005,231623,197365
1629456598971,24949,231514,197250
1629456598981,24883,231405,197108
1629456598991,24827,231312,196945
1629456599001,24767,231265,196813
1629456599011,24715,231199,196662
1629456599021,24660,231270,196537
1629456599031,24627,231336,196509
1629456599041,24592,231402,196485
1629456599051,24552,231449,196465
1629456599061,24499,231425,196404
1629456599071,24462,231403,196373
1629456599081,24435,231450,196330
1629456599091,24410,231472,196327
1629456599101,24383,231422,196281
1629456599111,24351,231404,196218
1629456599121,24319,231422,196225
1629456599131,24314,231386,196240
1629456599141,24312,231438,196286
1629456599151,24317,231515,196383
1629456599161,24339,231472,196422
1629456599171,24366,231517,196497
1629456599181,24388,231499,196634
1629456599191,24402,231475,196682
1629456599201,24408,231445,196738
1629456599211,24443,231448,196838
1629456599221,24473,231510,196897
1629456599231,24513,231500,197005
1629456599241,24538,231494,197113
1629456599251,24568,231467,197161
1629456599261,24625,231504,197296
1629456599271,24678,231588,197436
1629456599281,24729,231641,197548
1629456599291,24779,231690,197632
1629456599301,24813,231712,197686
1629456599311,24841,231731,197753
1629456599321,24860,231738,197771
1629456599331,24900,231775,197805
1629456599341,24931,231810,197920
1629456599351,24967,231865,197997
1629456599361,24994,231880,198076
1629456599371,25017,231896,198090
1629456599381,25034,231921,198134
1629456599391,25056,231970,198183
1629456599401,25077,231972,198216
1629456599411,25078,231986,198187
1629456599421,25083,232005,198153
1629456599431,25076,231982,198108
1629456599441,25073,231957,198067
1629456599451,25077,231942,198089
1629456599461,25085,231982,198079
1629456599471,25098,231960,198093
1629456599481,25132,231985,198211
1629456599491,25183,232028,198304
1629456599501,25210,232105,198410
1629456599511,25260,232174,198510
1629456599521,25277,232183,198605
1629456599531,25330,232191,198700
1629456599541,25376,232255,198799
1629456599551,25405,232294,198858
1629456599561,25436,232354,198939
1629456599571,25461,232337,198976
1629456599581,25476,232331,199053
1629456599591,25482,232329,199070
1629456599601,25472,232269,199137
1629456599611,25467,232235,199165
1629456599621,25445,232210,199180
1629456599631,25426,232146,199159
1629456599641,25395,232095,199142
1629456599651,25370,232014,199115
1629456599661,25334,231994,199074
1629456599671,25304,231932,199036
1629456599681,25276,231837,198977
1629456599691,25237,231839,198970
1629456599701,25210,231790,198903
1629456599711,25166,231757,198839
1629456599721,25125,231679,198781
1629456599731,25083,231616,198717
1629456599741,25045,231553,198661
1629456599751,25003,231524,198588
1629456599761,24966,231451,198527
1629456599771,24924,231412,198488
1629456599781,24904,231399,198464
1629456599791,24884,231366,198451
1629456599801,24873,231377,198454
1629456599811,24864,231386,198415
1629456599821,24863,231449,198430
1629456599831,24851,231380,198416
1629456599841,24851,231407,198427
1629456599851,24850,231438,198425
1629456599861,24857,231430,198483
1629456599871,24868,231436,198485
1629456599881,24865,231427,198495
1629456599891,24872,231473,198554
1629456599901,24899,231465,198556
1629456599911,24910,231476,198604
1629456599921,24933,231521,198599
1629456599931,24944,231502,198567
1629456599941,24955,231494,198560
1629456599951,24969,231533,198512
1629456599961,24981,231512,198473
1629456599971,24996,231504,198432
1629456599981,25006,231538,198408
1629456599991,25023,231557,198364
1629456600001,25033,231570,198287
1629456600011,25048,231607,198247
1629456600021,25068,231600,198198
1629456600031,25081,231604,198149
1629456600041,25098,231630,198112
1629456600051,25106,231688,198062
1629456600061,25122,231714,198027
1629456600071,25141,231753,197993
1629456600081,25149,231759,197950
1629456600091,25161,231786,197895
1629456600101,25170,231830,197868
1629456600111,25185,231868,197821
1629456600121,25203,231909,197830
1629456600131,25215,231951,197798
1629456600141,25230,231959,197795
1629456600151,25252,232036,197775
1629456600161,25263,232058,197775
1629456600171,25275,232084,197758
1629456600181,25286,232114,197740
1629456600191,25304,232145,197723
1629456600201,25315,232202,197741
1629456600211,25333,232202,197727
1629456600221,25337,232201,197706
1629456600231,25351,232266,197731
1629456600241,25357,232256,197694
1629456600251,25363,232224,197698
1629456600261,25348,232198,197663
1629456600271,25331,232149,197639
1629456600281,25295,232088,197617
1629456600291,25264,232045,197584
1629456600301,25224,232000,197563
1629456600311,25185,231920,197565
1629456600321,25155,231920,197516
1629456600331,25124,231879,197547
1629456600341,25098,231848,197551
1629456600351,25058,231814,197507
1629456600361,25029,231780,197497
1629456600371,25001,231737,197530
1629456600381,24985,231752,197593
1629456600391,24970,231756,197610
1629456600401,24954,231736,197645
1629456600411,24950,231697,197701
1629456600421,24938,231682,197769
1629456600431,24935,231704,197812
1629456600441,24924,231704,197843
1629456600451,24921,231687,197883
1629456600461,24920,231718,197975
1629456600471,24919,231749,198003
1629456600481,24937,231770,198043
1629456600491,24941,231701,198071
1629456600501,24935,231704,198073
1629456600511,24946,231715,198043
1629456600521,24913,231655,198017
1629456600531,24904,231600,197932
1629456600541,24889,231587,197908
1629456600551,24885,231563,197866
1629456600561,24870,231521,197826
1629456600571,24864,231504,197768
1629456600581,24847,231494,197716
1629456600591,24844,231458,197645
1629456600601,24833,231470,197596
1629456600611,24822,231473,197581
1629456600621,24817,231457,197514
1629456600631,24811,231421,197481
1629456600641,24810,231457,197497
1629456600651,24808,231451,197476
1629456600661,24820,231464,197471
1629456600671,24822,231518,197531
1629456600681,24830,231530,197562
1629456600691,24845,231522,197602
1629456600701,24861,231601,197612
1629456600711,24867,231551,197667
1629456600721,24886,231606,197757
1629456600731,24926,231627,197841
1629456600741,24955,231720,197964
1629456600751,25000,231778,198087
1629456600761,25045,231880,198242
1629456600771,25088,231958,198365
1629456600781,25128,232020,198489
1629456600791,25156,232069,198544
1629456600801,25197,232162,198619
1629456600811,25235,232187,198735
1629456600821,25258,232263,198794
1629456600831,25314,232347,198882
1629456600841,25362,232458,199005
1629456600851,25401,232524,199063
1629456600861,25435,232579,199137
1629456600871,25453,232648,199139
1629456600881,25469,232626,199078
1629456600891,25465,232592,198996
1629456600901,25439,232523,198894
1629456600911,25402,232411,198770
1629456600921,25356,232315,198668
1629456600931,25305,232175,198560
1629456600941,25275,232126,198541
1629456600951,25238,232036,198503
1629456600961,25220,231996,198464
1629456600971,25197,231973,198490
1629456600981,25171,231967,198524
1629456600991,25169,231935,198564
1629456601001,25145,231923,198547
1629456601011,25128,231915,198569
1629456601021,25107,231867,198538
1629456601031,25088,231861,198548
1629456601041,25067,231905,198546
1629456601051,25041,231833,198541
1629456601061,25017,231822,198495
1629456601071,24992,231814,198477
1629456601081,24968,231810,198441
1629456601091,24949,231756,198374
1629456601101,24917,231729,198337
1629456601111,24893,231738,198270
1629456601121,24880,231739,198211
1629456601131,24860,231697,198140
1629456601141,24845,231686,198088
1629456601151,24823,231633,198031
1629456601161,24821,231589,198001
1629456601171,24807,231591,197925
1629456601181,24789,231611,197899
1629456601191,24772,231544,197863
1629456601201,24756,231580,197828
1629456601211,24754,231536,197767
1629456601221,24739,231522,197735
1629456601231,24730,231498,197697
1629456601241,24723,231567,197689
1629456601251,24716,231525,197700
1629456601261,24720,231537,197712
1629456601271,24712,231517,197663
1629456601281,24709,231504,197631
1629456601291,24705,231545,197591
1629456601301,24702,231507,197560
1629456601311,24696,231515,197550
1629456601321,24689,231509,197517
1629456601331,24685,231505,197492
1629456601341,24687,231480,197480
1629456601351,24683,231476,197466
1629456601361,24680,231475,197482
1629456601371,24694,231475,197459
1629456601381,24707,231511,197458
1629456601391,24716,231485,197469
1629456601401,24718,231515,197461
1629456601411,24732,231522,197461
1629456601421,24751,231521,197482
1629456601431,24772,231565,197541
1629456601441,24796,231592,197554
1629456601451,24828,231642,197601
1629456601461,24854,231684,197591
1629456601471,24875,231678,197576
1629456601481,24896,231738,197565
1629456601491,24930,231740,197576
1629456601501,24941,231806,197546
1629456601511,24957,231798,197532
1629456601521,24972,231842,197517
1629456601531,24974,231855,197517
1629456601541,24978,231828,197474
1629456601551,24968,231773,197463
1629456601561,24954,231737,197474
1629456601571,24936,231717,197438
1629456601581,24916,231690,197426
1629456601591,24888,231666,197415
1629456601601,24870,231672,197374
1629456601611,24849,231575,197371
1629456601621,24839,231581,197366
1629456601631,24822,231555,197375
1629456601641,24803,231529,197382
1629456601651,24786,231535,197360
1629456601661,24771,231521,197391
1629456601671,24752,231516,197368
1629456601681,24732,231511,197344
1629456601691,24721,231503,197359
1629456601701,24701,231485,197353
1629456601711,24694,231462,197363
1629456601721,24682,231506,197375
1629456601731,24678,231496,197366
1629456601741,24671,231481,197391
1629456601751,24674,231521,197365
1629456601761,24676,231535,197385
1629456601771,24681,231564,197370
1629456601781,24697,231622,197378
1629456601791,24704,231569,197385
1629456601801,24714,231647,197392
1629456601811,24722,231648,197426
1629456601821,24734,231678,197423
1629456601831,24738,231685,197418
1629456601841,24744,231713,197406
1629456601851,24750,231696,197403
1629456601861,24751,231665,197377
1629456601871,24750,231682,197381
1629456601881,24745,231700,197346
1629456601891,24744,231699,197335
1629456601901,24750,231694,197353
1629456601911,24752,231673,197343
1629456601921,24754,231679,197351
1629456601931,24758,231652,197352
1629456601941,24751,231692,197315
1629456601951,24748,231621,197316
1629456601961,24765,231641,197310
1629456601971,24782,231668,197308
1629456601981,24772,231669,197296
1629456601991,24781,231636,197252
1629456602001,24785,231674,197243
1629456602011,24799,231683,197266
1629456602021,24809,231701,197277
1629456602031,24832,231691,197308
1629456602041,24841,231746,197303
1629456602051,24846,231757,197299
1629456602061,24862,231792,197300
1629456602071,24871,231754,197325
1629456602081,24879,231811,197330
1629456602091,24890,231804,197309
1629456602101,24900,231823,197339
1629456602111,24920,231835,197349
1629456602121,24929,231869,197358
1629456602131,24939,231877,197356
1629456602141,24939,231854,197326
1629456602151,24948,231920,197368
1629456602161,24958,231835,197347
1629456602171,24954,231911,197360
1629456602181,24973,231899,197358
1629456602191,24984,231905,197384
1629456602201,24992,231930,197410
1629456602211,25006,231936,197424
1629456602221,25021,231957,197442
1629456602231,25033,231986,197467
1629456602241,25037,231955,197494
1629456602251,25024,231912,197483
1629456602261,25022,231883,197496
1629456602271,24978,231798,197461
1629456602281,24952,231714,197445
1629456602291,24924,231663,197456
1629456602301,24897,231646,197470
1629456602311,24861,231602,197444
1629456602321,24832,231530,197412
1629456602331,24797,231482,197372
1629456602341,24770,231459,197366
1629456602351,24742,231402,197328
1629456602361,24729,231331,197334
1629456602371,24712,231367,197332
1629456602381,24699,231344,197321
1629456602391,24692,231316,197326
1629456602401,24684,231347,197356
1629456602411,24672,231302,197367
1629456602421,24671,231329,197414
1629456602431,24681,231345,197452
1629456602441,24687,231324,197493
1629456602451,24710,231320,197535
1629456602461,24727,231380,197580
1629456602471,24747,231422,197636
1629456602481,24771,231453,197680
1629456602491,24795,231474,197654
1629456602501,24805,231468,197695
1629456602511,24822,231499,197691
1629456602521,24832,231524,197715
1629456602531,24849,231512,197712
1629456602541,24864,231553,197726
1629456602551,24880,231555,197719
1629456602561,24883,231559,197698
1629456602571,24889,231609,197695
1629456602581,24901,231624,197679
1629456602591,24902,231671,197665
1629456602601,24896,231665,197672
1629456602611,24897,231679,197624
1629456602621,24896,231678,197573
1629456602631,24887,231679,197554
1629456602641,24877,231685,197533
1629456602651,24878,231681,197470
1629456602661,24867,231657,197439
1629456602671,24863,231707,197436
1629456602681,24867,231703,197448
1629456602691,24885,231725,197452
1629456602701,24896,231731,197456
1629456602711,24914,231798,197505
1629456602721,24931,231845,197551
1629456602731,24962,231852,197587
1629456602741,24985,231857,197638
1629456602751,24997,231878,197711
1629456602761,25012,231945,197739
1629456602771,25037,231969,197766
1629456602781,25056,231970,197761
1629456602791,25064,231981,197776
1629456602801,25081,232002,197803
1629456602811,25098,232046,197869
1629456602821,25115,232038,197876
1629456602831,25131,232077,197899
1629456602841,25155,232113,197876
1629456602851,25171,232147,197945
1629456602861,25187,232129,197969
1629456602871,25208,232179,197984
1629456602881,25228,232187,198024
1629456602891,25247,232205,198046
1629456602901,25268,232234,198026
1629456602911,25271,232265,198063
1629456602921,25293,232302,198051
1629456602931,25319,232275,198059
1629456602941,25328,232306,198063
1629456602951,25346,232336,198033
1629456602961,25356,232384,198039
1629456602971,25370,232409,198031
1629456602981,25378,232392,198015
1629456602991,25381,232373,198002
1629456603001,25365,232301,197960
1629456603011,25349,232241,197912
1629456603021,25327,232215,197888
1629456603031,25301,232186,197876
1629456603041,25276,232148,197848
1629456603051,25248,232136,197799
1629456603061,25226,232083,197760
1629456603071,25199,232038,197716
1629456603081,25172,232014,197702
1629456603091,25142,232002,197684
1629456603101,25126,231951,197622
1629456603111,25092,231928,197598
1629456603121,25079,231870,197561
1629456603131,25049,231825,197515
1629456603141,25024,231815,197507
1629456603151,25008,231782,197488
1629456603161,24990,231760,197490
1629456603171,24974,231766,197449
1629456603181,24956,231733,197441
1629456603191,24948,231772,197449
1629456603201,24938,231751,197400
1629456603211,24937,231740,197400
1629456603221,24932,231757,197385
1629456603231,24940,231760,197412
1629456603241,24931,231719,197413
1629456603251,24936,231767,197374
1629456603261,24931,231745,197378
1629456603271,24915,231729,197353
1629456603281,24897,231679,197338
1629456603291,24881,231658,197337
1629456603301,24888,231621,197359
1629456603311,24891,231669,197417
1629456603321,24893,231652,197456
1629456603331,24921,231716,197559
1629456603341,24947,231755,197635
1629456603351,24997,231868,197769
1629456603361,25041,231981,197849
1629456603371,25078,232053,197898
1629456603381,25093,232053,197886
1629456603391,25111,232073,197892
1629456603401,25115,232133,197891
1629456603411,25132,232131,197908
1629456603421,25149,232182,197958
1629456603431,25174,232162,198000
1629456603441,25195,232231,198028
1629456603451,25221,232267,198042
1629456603461,25238,232327,198026
1629456603471,25249,232334,198007
1629456603481,25244,232328,197943
1629456603491,25259,232349,197900
1629456603501,25263,232383,197879
1629456603511,25276,232400,197810
1629456603521,25285,232378,197768
1629456603531,25298,232395,197740
1629456603541,25303,232410,197706
1629456603551,25332,232426,197723
1629456603561,25347,232509,197736
1629456603571,25389,232555,197792
1629456603581,25415,232615,197881
1629456603591,25470,232706,197955
1629456603601,25523,232820,198090
1629456603611,25582,232951,198240
1629456603621,25641,233052,198404
1629456603631,25704,233202,198556
1629456603641,25751,233315,198742
1629456603651,25818,233438,198913
1629456603661,25876,233658,199028
1629456603671,25927,233765,199194
1629456603681,25977,233878,199262
1629456603691,26003,233958,199323
1629456603701,26036,233986,199360
1629456603711,26059,234023,199386
1629456603721,26070,233999,199401
1629456603731,26093,233967,199397
1629456603741,26095,233923,199402
1629456603751,26102,233894,199370
1629456603761,26086,233851,199346
1629456603771,26053,233691,199287
1629456603781,26010,233599,199197
1629456603791,25964,233476,199150
1629456603801,25910,233377,199080
1629456603811,25865,233316,199046
1629456603821,25818,233227,198971
1629456603831,25765,233182,198906
1629456603841,25723,233093,198866
1629456603851,25674,233067,198787
1629456603861,25633,232992,198751
1629456603871,25589,232923,198740
1629456603881,25555,232918,198704
1629456603891,25522,232832,198686
1629456603901,25474,232805,198627
1629456603911,25432,232753,198579
1629456603921,25370,232689,198556
1629456603931,25351,232662,198504
1629456603941,25311,232615,198511
1629456603951,25272,232569,198470
1629456603961,25244,232577,198494
1629456603971,25219,232531,198460
1629456603981,25200,232516,198456
1629456603991,25183,232521,198449
1629456604001,25175,232494,198440
1629456604011,25166,232498,198410
1629456604021,25145,232476,198363
1629456604031,25129,232475,198374
1629456604041,25110,232465,198347
1629456604051,25105,232463,198373
1629456604061,25096,232487,198360
1629456604071,25087,232492,198354
1629456604081,25064,232495,198359
1629456604091,25059,232473,198364
1629456604101,25050,232413,198345
1629456604111,25040,232411,198377
1629456604121,25040,232419,198337
1629456604131,25030,232413,198328
1629456604141,25034,232431,198320
1629456604151,25029,232399,198344
1629456604161,25024,232388,198364
1629456604171,25028,232385,198387
1629456604181,25028,232427,198375
1629456604191,25033,232432,198442
1629456604201,25040,232475,198431
1629456604211,25050,232501,198447
1629456604221,25063,232519,198518
1629456604231,25081,232568,198561
1629456604241,25082,232580,198567
1629456604251,25105,232591,198616
1629456604261,25117,232613,198653
1629456604271,25126,232625,198663
1629456604281,25132,232646,198667
1629456604291,25154,232658,198729
1629456604301,25163,232675,198749
1629456604311,25175,232731,198805
1629456604321,25204,232775,198845
1629456604331,25224,232811,198905
1629456604341,25243,232892,198968
1629456604351,25262,232893,199012
1629456604361,25279,232916,199076
1629456604371,25303,232915,199108
1629456604381,25316,232957,199144
1629456604391,25326,232991,199195
1629456604401,25343,233036,199185
1629456604411,25351,233003,199200
1629456604421,25373,233038,199243
1629456604431,25385,233035,199233
1629456604441,25393,233058,199259
1629456604451,25397,233091,199273
1629456604461,25415,233119,199306
1629456604471,25430,233144,199338
1629456604481,25445,233160,199384
1629456604491,25461,233183,199390
1629456604501,25468,233195,199385
1629456604511,25470,233220,199363
1629456604521,25479,233156,199363
1629456604531,25478,233203,199350
1629456604541,25477,233161,199329
1629456604551,25464,233162,199325
1629456604561,25445,233104,199288
1629456604571,25408,233006,199230
1629456604581,25374,232963,199208
1629456604591,25337,232901,199175
1629456604601,25293,232792,199129
1629456604611,25242,232691,199050
1629456604621,25202,232696,198992
1629456604631,25156,232600,198930
1629456604641,25121,232552,198871
1629456604651,25078,232488,198795
1629456604661,25051,232498,198750
1629456604671,25013,232393,198691
1629456604681,24975,232366,198604
1629456604691,24951,232314,198558
1629456604701,24910,232239,198487
1629456604711,24896,232239,198464
1629456604721,24859,232184,198392
1629456604731,24839,232127,198355
1629456604741,24823,232082,198287
1629456604751,24791,232078,198252
1629456604761,24771,232055,198149
1629456604771,24763,232065,198063
1629456604781,24755,232048,198009
1629456604791,24754,232083,197950
1629456604801,24750,232081,197879
1629456604811,24753,232060,197832
1629456604821,24753,232088,197827
1629456604831,24757,232105,197843
1629456604841,24764,232138,197847
1629456604851,24772,232174,197892
1629456604861,24786,232216,197901
1629456604871,24799,232234,197930
1629456604881,24799,232244,197964
1629456604891,24823,232275,197958
1629456604901,24823,232323,197987
1629456604911,24841,232333,198043
1629456604921,24844,232326,198082
1629456604931,24851,232382,198086
1629456604941,24866,232431,198092
1629456604951,24872,232415,198138
1629456604961,24889,232457,198171
1629456604971,24904,232476,198162
1629456604981,24906,232495,198170
1629456604991,24910,232528,198183
1629456605001,24917,232518,198188
1629456605011,24916,232521,198168
1629456605021,24915,232524,198174
1629456605031,24913,232449,198124
1629456605041,24900,232477,198100
1629456605051,24899,232489,198068
1629456605061,24900,232476,198035
1629456605071,24896,232422,198037
1629456605081,24896,232434,197995
1629456605091,24895,232463,198028
1629456605101,24905,232441,198033
1629456605111,24912,232520,198031
1629456605121,24911,232493,198029
1629456605131,24914,232514,198013
1629456605141,24924,232471,198008
1629456605151,24925,232504,197996
1629456605161,24935,232525,198019
1629456605171,24938,232532,198015
1629456605181,24937,232534,197978
1629456605191,24944,232533,198001
1629456605201,24944,232540,197995
1629456605211,24958,232557,197947
1629456605221,24963,232555,197955
1629456605231,24957,232579,197938
1629456605241,24955,232558,197930
1629456605251,24946,232537,197923
1629456605261,24926,232521,197879
1629456605271,24905,232420,197872
1629456605281,24861,232367,197819
1629456605291,24820,232284,197778
1629456605301,24788,232240,197755
1629456605311,24758,232168,197761
1629456605321,24726,232116,197730
1629456605331,24695,232135,197741
1629456605341,24686,232083,197714
1629456605351,24666,232118,197754
1629456605361,24641,232053,197784
1629456605371,24653,232047,197833
1629456605381,24659,232100,197881
1629456605391,24669,232074,197936
1629456605401,24682,232078,197985
1629456605411,24689,232127,198017
1629456605421,24706,232194,198030
1629456605431,24715,232180,198045
1629456605441,24735,232274,198102
1629456605451,24762,232305,198172
1629456605461,24787,232322,198210
1629456605471,24810,232389,198251
1629456605481,24838,232443,198291
1629456605491,24866,232524,198320
1629456605501,24897,232550,198364
1629456605511,24923,232651,198419
1629456605521,24943,232687,198426
1629456605531,24962,232686,198428
1629456605541,24989,232746,198459
1629456605551,25006,232805,198460
1629456605561,25016,232787,198492
1629456605571,25034,232834,198503
1629456605581,25048,232858,198522
1629456605591,25057,232840,198535
1629456605601,25072,232881,198523
1629456605611,25075,232935,198529
1629456605621,25085,232971,198536
1629456605631,25094,232954,198533
1629456605641,25105,232930,198501
1629456605651,25102,232941,198499
1629456605661,25109,232915,198480
1629456605671,25111,232931,198491
1629456605681,25123,232930,198440
1629456605691,25140,232952,198464
1629456605701,25140,232966,198425
1629456605711,25149,232967,198382
1629456605721,25151,232955,198339
1629456605731,25157,232988,198315
1629456605741,25168,232971,198249
1629456605751,25169,232968,198207
1629456605761,25169,232984,198160
1629456605771,25169,232988,198115
1629456605781,25178,233012,198052
1629456605791,25173,233017,197997
1629456605801,25173,232999,197928
1629456605811,25171,232969,197864
1629456605821,25172,232963,197814
1629456605831,25180,233002,197754
1629456605841,25184,232989,197733
1629456605851,25174,232987,197683
1629456605861,25172,232985,197618
1629456605871,25181,232976,197561
1629456605881,25184,232997,197557
1629456605891,25191,232978,197527
1629456605901,25186,232976,197479
1629456605911,25187,232986,197422
1629456605921,25196,233030,197409
1629456605931,25198,233012,197376
1629456605941,25189,232995,197317
1629456605951,25187,233009,197321
1629456605961,25168,232942,197283
1629456605971,25145,232883,197244
1629456605981,25112,232823,197238
1629456605991,25077,232767,197166
1629456606001,25047,232714,197136
1629456606011,25014,232620,197138
1629456606021,24975,232548,197087
1629456606031,24948,232524,197070
1629456606041,24911,232476,197023
1629456606051,24883,232421,196999
1629456606061,24858,232377,196998
1629456606071,24831,232315,196976
1629456606081,24799,232274,196942
1629456606091,24770,232219,196905
1629456606101,24745,232208,196882
1629456606111,24714,232125,196878
1629456606121,24693,232096,196867
1629456606131,24671,232099,196816
1629456606141,24644,232015,196813
1629456606151,24615,231995,196756
1629456606161,24605,231984,196756
1629456606171,24588,231958,196727
1629456606181,24578,231919,196700
1629456606191,24560,231898,196642
1629456606201,24554,231880,196640
1629456606211,24554,231859,196616
1629456606221,24537,231840,196574
1629456606231,24527,231840,196548
1629456606241,24512,231784,196506
1629456606251,24507,231780,196482
1629456606261,24498,231763,196451
1629456606271,24488,231736,196440
1629456606281,24493,231687,196424
1629456606291,24487,231661,196388
1629456606301,24480,231688,196406
1629456606311,24472,231688,196384
1629456606321,24473,231673,196355
1629456606331,24469,231701,196349
1629456606341,24473,231663,196332
1629456606351,24466,231654,196355
1629456606361,24461,231681,196320
1629456606371,24472,231648,196308
1629456606381,24474,231666,196323
1629456606391,24492,231687,196321
1629456606401,24489,231670,196307
1629456606411,24498,231741,196320
1629456606421,24507,231738,196311
1629456606431,24511,231751,196320
1629456606441,24527,231730,196344
1629456606451,24540,231748,196340
1629456606461,24547,231817,196350
1629456606471,24562,231776,196374
1629456606481,24576,231807,196374
1629456606491,24591,231831,196393
1629456606501,24606,231846,196406
1629456606511,24629,231928,196442
1629456606521,24636,231948,196516
1629456606531,24666,231998,196532
1629456606541,24691,232040,196602
1629456606551,24714,232067,196605
1629456606561,24726,232083,196637
1629456606571,24752,232083,196679
1629456606581,24778,232117,196721
1629456606591,24800,232154,196743
1629456606601,24817,232173,196796
1629456606611,24828,232226,196800
1629456606621,24841,232187,196812
1629456606631,24845,232157,196826
1629456606641,24838,232120,196771
1629456606651,24817,232063,196767
1629456606661,24793,232040,196710
1629456606671,24769,231946,196704
1629456606681,24742,231896,196696
1629456606691,24704,231876,196667
1629456606701,24686,231817,196643
1629456606711,24665,231808,196629
1629456606721,24651,231769,196619
1629456606731,24625,231724,196614
1629456606741,24609,231695,196593
1629456606751,24597,231677,196569
1629456606761,24578,231694,196611
1629456606771,24568,231638,196548
1629456606781,24555,231641,196574
1629456606791,24539,231612,196557
1629456606801,24514,231576,196525
1629456606811,24506,231567,196506
1629456606821,24508,231508,196487
1629456606831,24491,231519,196463
1629456606841,24495,231492,196484
1629456606851,24492,231560,196471
1629456606861,24500,231540,196479
1629456606871,24502,231534,196464
1629456606881,24514,231564,196442
1629456606891,24514,231564,196424
1629456606901,24530,231581,196436
1629456606911,24536,231626,196452
1629456606921,24545,231615,196439
1629456606931,24543,231650,196468
1629456606941,24553,231641,196464
1629456606951,24569,231653,196475
1629456606961,24587,231674,196490
1629456606971,24594,231689,196496
1629456606981,24608,231700,196546
1629456606991,24616,231761,196550
1629456607001,24637,231784,196561
1629456607011,24653,231790,196558
1629456607021,24671,231805,196579
1629456607031,24688,231851,196600
1629456607041,24705,231858,196606
1629456607051,24722,231912,196642
1629456607061,24739,231939,196655
1629456607071,24762,231971,196665
1629456607081,24784,232027,196701
1629456607091,24810,232056,196733
1629456607101,24827,232090,196749
1629456607111,24852,232177,196758
1629456607121,24883,232202,196809
1629456607131,24904,232211,196827
1629456607141,24935,232297,196848
1629456607151,24949,232334,196889
1629456607161,24981,232353,196933
1629456607171,25015,232374,196933
1629456607181,25032,232439,196953
1629456607191,25063,232454,196963
1629456607201,25079,232518,196992
1629456607211,25104,232518,197032
1629456607221,25130,232577,197035
1629456607231,25157,232632,197062
1629456607241,25178,232687,197081
1629456607251,25205,232719,197108
1629456607261,25227,232754,197136
1629456607271,25253,232797,197145
1629456607281,25271,232845,197151
1629456607291,25282,232843,197162
1629456607301,25308,232878,197175
1629456607311,25322,232905,197190
1629456607321,25334,232925,197174
1629456607331,25355,232958,197160
1629456607341,25362,232896,197155
1629456607351,25356,232897,197164
1629456607361,25342,232881,197145
1629456607371,25330,232825,197130
1629456607381,25312,232786,197132
1629456607391,25295,232738,197137
1629456607401,25284,232708,197113
1629456607411,25269,232728,197121
1629456607421,25259,232679,197134
1629456607431,25244,232670,197117
1629456607441,25226,232625,197108
1629456607451,25209,232601,197115
1629456607461,25207,232593,197097
1629456607471,25197,232591,197089
1629456607481,25194,232589,197104
1629456607491,25181,232548,197100
1629456607501,25177,232592,197093
1629456607511,25172,232569,197087
1629456607521,25158,232570,197100
1629456607531,25160,232591,197080
1629456607541,25155,232558,197077
1629456607551,25152,232607,197053
1629456607561,25154,232582,197068
1629456607571,25157,232607,197071
1629456607581,25166,232664,197070
1629456607591,25177,232661,197075
1629456607601,25181,232698,197055
1629456607611,25192,232695,197080
1629456607621,25206,232781,197056
1629456607631,25210,232771,197084
1629456607641,25213,232794,197094
1629456607651,25233,232812,197104
1629456607661,25242,232850,197088
1629456607671,25237,232896,197104
1629456607681,25250,232894,197111
1629456607691,25255,232947,197084
1629456607701,25272,232950,197109
1629456607711,25279,233002,197101
1629456607721,25284,233025,197106
1629456607731,25301,233070,197122
1629456607741,25306,233099,197132
1629456607751,25327,233126,197145
1629456607761,25339,233186,197137
1629456607771,25347,233213,197173
1629456607781,25357,233211,197171
1629456607791,25387,233225,197181
1629456607801,25399,233256,197199
1629456607811,25409,233286,197205
1629456607821,25426,233300,197190
1629456607831,25439,233328,197224
1629456607841,25452,233361,197203
1629456607851,25470,233379,197214
1629456607861,25488,233410,197235
1629456607871,25503,233468,197231
1629456607881,25518,233447,197247
1629456607891,25541,233484,197259
1629456607901,25561,233519,197279
1629456607911,25577,233510,197296
1629456607921,25592,233526,197320
1629456607931,25610,233576,197295
1629456607941,25628,233551,197339
1629456607951,25641,233587,197331
1629456607961,25657,233571,197328
1629456607971,25672,233622,197334
1629456607981,25685,233614,197325
1629456607991,25693,233641,197308
1629456608001,25703,233681,197297
1629456608011,25716,233619,197309
1629456608021,25714,233615,197285
1629456608031,25711,233617,197283
1629456608041,25689,233570,197271
1629456608051,25674,233512,197236
1629456608061,25650,233473,197214
1629456608071,25623,233449,197188
1629456608081,25598,233376,197166
1629456608091,25574,233341,197160
1629456608101,25554,233278,197151
1629456608111,25536,233274,197122
1629456608121,25499,233197,197121
1629456608131,25481,233204,197107
1629456608141,25464,233140,197106
1629456608151,25448,233129,197086
1629456608161,25425,233091,197055
1629456608171,25410,233042,197088
1629456608181,25387,233042,197051
1629456608191,25364,233033,197044
1629456608201,25350,232992,197063
1629456608211,25329,233004,197027
1629456608221,25316,232942,197019
1629456608231,25303,232935,197000
1629456608241,25292,232911,197006
1629456608251,25288,232910,197006
1629456608261,25291,232912,197006
1629456608271,25285,232894,196983
1629456608281,25287,232896,196975
1629456608291,25270,232920,196943
1629456608301,25284,232882,197028
1629456608311,25281,232908,196980
1629456608321,25281,232871,197003
1629456608331,25289,232908,197094
1629456608341,25287,232854,197093
1629456608351,25285,232878,197074
1629456608361,25279,232869,197072
1629456608371,25283,232831,197057
1629456608381,25278,232859,197061
1629456608391,25272,232834,197070
1629456608401,25267,232855,197051
1629456608411,25277,232838,197031
1629456608421,25278,232855,196995
1629456608431,25269,232845,197024
1629456608441,25275,232839,197005
1629456608451,25280,232869,197009
1629456608461,25288,232876,197014
1629456608471,25287,232872,197012
1629456608481,25293,232875,196974
1629456608491,25298,232883,196983
1629456608501,25303,232876,196998
1629456608511,25306,232882,196995
1629456608521,25310,232877,196975
1629456608531,25317,232905,196967
1629456608541,25322,232910,196948
1629456608551,25324,232947,196959
1629456608561,25336,232920,196967
1629456608571,25337,232912,196966
1629456608581,25346,232928,196948
1629456608591,25351,232934,196941
1629456608601,25365,232973,196974
1629456608611,25379,232959,196950
1629456608621,25372,232978,196960
1629456608631,25384,233020,196976
1629456608641,25393,232970,196988
1629456608651,25395,232995,196963
1629456608661,25412,233012,196957
1629456608671,25412,233044,196962
1629456608681,25419,233058,196980
1629456608691,25432,233049,196981
1629456608701,25433,233039,196965
1629456608711,25437,233059,196979
1629456608721,25438,233042,196946
1629456608731,25431,233016,196931
1629456608741,25408,232952,196877
1629456608751,25384,232911,196879
1629456608761,25343,232825,196841
1629456608771,25305,232786,196819
1629456608781,25281,232707,196791
1629456608791,25245,232669,196762
1629456608801,25209,232597,196732
1629456608811,25166,232562,196705
1629456608821,25135,232510,196678
1629456608831,25098,232514,196672
1629456608841,25066,232441,196645
1629456608851,25032,232386,196606
1629456608861,25002,232369,196580
1629456608871,24967,232291,196549
1629456608881,24934,232259,196523
1629456608891,24895,232232,196479
1629456608901,24861,232187,196454
1629456608911,24831,232137,196406
1629456608921,24798,232150,196365
1629456608931,24758,232085,196319
1629456608941,24733,232071,196289
1629456608951,24706,232030,196229
1629456608961,24685,232054,196204
1629456608971,24672,232048,196201
1629456608981,24662,232031,196194
1629456608991,24646,232033,196134
1629456609001,24638,232045,196128
1629456609011,24619,232014,196069
1629456609021,24622,232047,196089
1629456609031,24606,232034,196070
1629456609041,24605,232005,196071
1629456609051,24596,231993,196084
1629456609061,24594,232025,196068
1629456609071,24597,232045,196096
1629456609081,24594,232012,196124
1629456609091,24601,232018,196105
1629456609101,24594,232050,196135
1629456609111,24604,232053,196178
1629456609121,24622,232060,196208
1629456609131,24629,232089,196241
1629456609141,24634,232085,196289
1629456609151,24652,232145,196327
1629456609161,24669,232139,196364
1629456609171,24685,232169,196440
1629456609181,24705,232246,196489
1629456609191,24734,232262,196540
1629456609201,24760,232305,196619
1629456609211,24786,232398,196681
1629456609221,24814,232411,196752
1629456609231,24842,232491,196845
1629456609241,24872,232495,196890
1629456609251,24893,232571,196956
1629456609261,24923,232614,197025
1629456609271,24947,232713,197109
1629456609281,24976,232719,197169
1629456609291,25005,232795,197236
1629456609301,25035,232803,197265
1629456609311,25062,232870,197346
1629456609321,25105,232913,197422
1629456609331,25132,232974,197455
1629456609341,25160,233060,197515
1629456609351,25183,233098,197575
1629456609361,25203,233120,197579
1629456609371,25224,233112,197634
1629456609381,25247,233168,197679
1629456609391,25267,233182,197717
1629456609401,25287,233234,197786
1629456609411,25312,233255,197833
1629456609421,25320,233248,197854
1629456609431,25342,233307,197869
1629456609441,25347,233377,197921
1629456609451,25358,233382,197956
1629456609461,25352,233387,197965
1629456609471,25340,233323,197988
1629456609481,25319,233313,198002
1629456609491,25304,233289,198053
1629456609501,25290,233228,198109
1629456609511,25268,233203,198164
1629456609521,25240,233153,198187
1629456609531,25207,233082,198233
1629456609541,25165,232978,198210
1629456609551,25116,232899,198154
1629456609561,25073,232813,198115
1629456609571,25051,232793,198121
1629456609581,25029,232749,198199
1629456609591,25017,232737,198234
1629456609601,25008,232721,198277
1629456609611,24995,232725,198327
1629456609621,24985,232705,198343
1629456609631,24971,232664,198374
1629456609641,24951,232591,198350
1629456609651,24924,232552,198359
1629456609661,24912,232538,198385
1629456609671,24903,232533,198415
1629456609681,24886,232504,198401
1629456609691,24872,232434,198408
1629456609701,24868,232427,198375
1629456609711,24853,232399,198346
1629456609721,24836,232361,198260
1629456609731,24834,232304,198218
1629456609741,24802,232258,198150
1629456609751,24798,232250,198103
1629456609761,24796,232216,198068
1629456609771,24781,232182,198045
1629456609781,24771,232135,197953
1629456609791,24773,232153,197908
1629456609801,24759,232063,197836
1629456609811,24754,232066,197733
1629456609821,24737,231984,197662
1629456609831,24727,231993,197583
1629456609841,24707,231946,197497
1629456609851,24688,231991,197425
1629456609861,24672,231924,197364
1629456609871,24658,231927,197330
1629456609881,24642,231888,197297
1629456609891,24647,231886,197311
1629456609901,24653,231907,197333
1629456609911,24667,231942,197359
1629456609921,24676,231968,197384
1629456609931,24680,231987,197378
1629456609941,24681,231990,197375
1629456609951,24693,231975,197360
1629456609961,24698,232000,197420
1629456609971,24726,232065,197472
1629456609981,24754,232090,197559
1629456609991,24783,232167,197647
1629456610001,24804,232184,197695
1629456610011,24816,232198,197700
1629456610021,24821,232171,197703
1629456610031,24821,232219,197680
1629456610041,24827,232208,197671
1629456610051,24826,232203,197645
1629456610061,24818,232219,197637
1629456610071,24831,232206,197653
1629456610081,24842,232253,197670
1629456610091,24843,232271,197658
1629456610101,24846,232256,197660
1629456610111,24857,232281,197674
1629456610121,24874,232322,197686
1629456610131,24877,232286,197679
1629456610141,24882,232332,197710
1629456610151,24897,232333,197725
1629456610161,24898,232361,197729
1629456610171,24884,232342,197713
1629456610181,24867,232270,197687
1629456610191,24841,232218,197700
1629456610201,24803,232119,197635
1629456610211,24786,232110,197638
1629456610221,24761,232030,197638
1629456610231,24721,232023,197619
1629456610241,24703,231959,197620
1629456610251,24669,231923,197596
1629456610261,24644,231855,197557
1629456610271,24615,231851,197530
1629456610281,24584,231809,197511
1629456610291,24572,231767,197493
1629456610301,24549,231743,197523
1629456610311,24533,231688,197522
1629456610321,24514,231705,197500
1629456610331,24508,231672,197497
1629456610341,24491,231642,197511
1629456610351,24484,231642,197559
1629456610361,24478,231651,197545
1629456610371,24477,231611,197529
1629456610381,24461,231613,197523
1629456610391,24469,231585,197518
1629456610401,24468,231586,197512
1629456610411,24474,231628,197554
1629456610421,24481,231636,197507
1629456610431,24491,231628,197514
1629456610441,24495,231617,197509
1629456610451,24496,231631,197526
1629456610461,24504,231631,197531
1629456610471,24501,231606,197511
1629456610481,24502,231619,197492
1629456610491,24507,231636,197514
1629456610501,24513,231610,197490
1629456610511,24516,231651,197486
1629456610521,24519,231631,197467
1629456610531,24531,231629,197467
1629456610541,24543,231638,197481
1629456610551,24554,231681,197479
1629456610561,24579,231722,197517
1629456610571,24609,231744,197523
1629456610581,24632,231804,197577
1629456610591,24660,231823,197616
1629456610601,24700,231921,197654
1629456610611,24718,231907,197673
1629456610621,24763,231987,197700
1629456610631,24791,232063,197745
1629456610641,24822,232090,197785
1629456610651,24848,232134,197803
1629456610661,24883,232189,197808
1629456610671,24917,232246,197887
1629456610681,24949,232308,197853
1629456610691,24976,232348,197893
1629456610701,25004,232390,197905
1629456610711,25034,232380,197900
1629456610721,25064,232446,197917
1629456610731,25095,232499,197973
1629456610741,25103,232537,198015
1629456610751,25147,232611,198020
1629456610761,25164,232602,198041
1629456610771,25185,232669,198057
1629456610781,25207,232671,198051
1629456610791,25231,232700,198029
1629456610801,25251,232760,198046
1629456610811,25270,232792,198018
1629456610821,25291,232833,198027
1629456610831,25310,232908,197999
1629456610841,25323,232866,197970
1629456610851,25338,232919,197941
1629456610861,25346,232949,197927
1629456610871,25373,233006,197930
1629456610881,25386,233023,197923
1629456610891,25401,233083,197915
1629456610901,25403,233075,197914
1629456610911,25404,233059,197883
1629456610921,25400,233028,197832
1629456610931,25371,232971,197792
1629456610941,25351,232886,197756
1629456610951,25318,232863,197708
1629456610961,25294,232800,197688
1629456610971,25270,232782,197649
1629456610981,25237,232734,197597
1629456610991,25208,232712,197576
1629456611001,25180,232643,197527
1629456611011,25150,232604,197485
1629456611021,25121,232581,197485
1629456611031,25097,232540,197425
1629456611041,25080,232514,197383
1629456611051,25055,232472,197386
1629456611061,25038,232429,197377
1629456611071,25012,232400,197361
1629456611081,24992,232383,197317
1629456611091,24969,232346,197322
1629456611101,24956,232336,197320
1629456611111,24937,232319,197276
1629456611121,24923,232281,197279
1629456611131,24912,232253,197268
1629456611141,24912,232265,197260
1629456611151,24913,232279,197229
1629456611161,24909,232284,197254
1629456611171,24917,232295,197252
1629456611181,24917,232221,197244
1629456611191,24913,232269,197237
1629456611201,24900,232259,197224
1629456611211,24898,232234,197214
1629456611221,24894,232226,197204
1629456611231,24897,232230,197216
1629456611241,24901,232211,197186
1629456611251,24892,232183,197197
1629456611261,24877,232154,197171
1629456611271,24874,232152,197161
1629456611281,24875,232134,197118
1629456611291,24868,232129,197082
1629456611301,24863,232142,197067
1629456611311,24857,232103,197061
1629456611321,24846,232085,197008
1629456611331,24845,232091,196984
1629456611341,24841,232103,196959
1629456611351,24845,232064,196940
1629456611361,24831,232065,196952
1629456611371,24846,232069,196921
1629456611381,24838,232083,196921
1629456611391,24853,232069,196907
1629456611401,24858,232066,196917
1629456611411,24856,232067,196880
1629456611421,24859,232064,196876
1629456611431,24857,232085,196838
1629456611441,24853,232095,196817
1629456611451,24848,232051,196780
1629456611461,24852,232078,196756
1629456611471,24847,232071,196718
1629456611481,24846,232060,196686
1629456611491,24851,232067,196665
1629456611501,24848,232048,196630
1629456611511,24842,232050,196612
1629456611521,24849,232054,196591
1629456611531,24853,232077,196588
1629456611541,24855,232091,196562
1629456611551,24859,232094,196543
1629456611561,24857,232090,196502
1629456611571,24861,232092,196497
1629456611581,24870,232117,196479
1629456611591,24870,232089,196433
1629456611601,24872,232125,196432
1629456611611,24878,232140,196389
1629456611621,24870,232137,196364
1629456611631,24874,232121,196340
1629456611641,24871,232088,196327
1629456611651,24858,232092,196274
1629456611661,24842,232027,196253
1629456611671,24810,231990,196210
1629456611681,24780,231915,196177
1629456611691,24760,231915,196149
1629456611701,24728,231809,196117
1629456611711,24700,231789,196084
1629456611721,24672,231770,196071
1629456611731,24652,231707,196049
1629456611741,24630,231699,195989
1629456611751,24603,231658,195959
1629456611761,24583,231592,195938
1629456611771,24559,231569,195918
1629456611781,24540,231552,195915
1629456611791,24519,231538,195905
1629456611801,24491,231492,195861
1629456611811,24473,231467,195864
1629456611821,24456,231464,195842
1629456611831,24436,231411,195833
1629456611841,24429,231400,195784
1629456611851,24412,231413,195770
1629456611861,24393,231349,195767
1629456611871,24395,231331,195777
1629456611881,24388,231353,195748
1629456611891,24392,231387,195747
1629456611901,24396,231359,195764
1629456611911,24393,231365,195731
1629456611921,24399,231367,195726
1629456611931,24393,231367,195692
1629456611941,24389,231373,195709
1629456611951,24389,231373,195697
1629456611961,24388,231360,195665
1629456611971,24385,231334,195630
1629456611981,24383,231340,195601
1629456611991,24373,231343,195613
1629456612001,24371,231343,195595
1629456612011,24385,231362,195586
1629456612021,24385,231366,195563
1629456612031,24380,231374,195529
1629456612041,24390,231379,195559
1629456612051,24391,231385,195559
1629456612061,24400,231406,195535
1629456612071,24408,231448,195537
1629456612081,24413,231448,195555
1629456612091,24419,231460,195531
1629456612101,24424,231454,195553
1629456612111,24431,231487,195514
1629456612121,24436,231516,195520
1629456612131,24448,231529,195529
1629456612141,24457,231539,195533
1629456612151,24470,231541,195531
1629456612161,24478,231571,195532
1629456612171,24485,231629,195511
1629456612181,24500,231658,195523
1629456612191,24514,231664,195556
1629456612201,24524,231680,195542
1629456612211,24531,231719,195546
1629456612221,24537,231696,195537
1629456612231,24553,231721,195531
1629456612241,24561,231750,195527
1629456612251,24572,231772,195529
1629456612261,24572,231786,195554
1629456612271,24589,231829,195560
