timestamp,green,ir,red
1630934635193,22775,223037,141989
1630934635203,22774,223025,141984
1630934635213,22773,223026,141968
1630934635223,22779,223049,141975
1630934635233,22774,223020,141962
1630934635243,22770,223023,141973
1630934635253,22770,223000,141948
1630934635263,22769,223014,141932
1630934635273,22771,223025,141910
1630934635283,22766,223018,141922
1630934635293,22777,223015,141911
1630934635303,22772,223009,141902
1630934635313,22767,222996,141906
1630934635323,22772,223003,141898
1630934635333,22775,223039,141896
1630934635343,22777,223038,141894
1630934635353,22780,223018,141890
1630934635363,22779,223007,141906
1630934635373,22783,223018,141881
1630934635383,22789,223033,141884
1630934635393,22789,222996,141890
1630934635403,22790,223013,141902
1630934635413,22790,223050,141902
1630934635423,22792,223010,141898
1630934635433,22793,223038,141913
1630934635443,22799,223073,141913
1630934635453,22801,223073,141915
1630934635463,22802,223024,141901
1630934635473,22804,223094,141905
1630934635483,22800,223056,141903
1630934635493,22807,223082,141919
1630934635503,22808,223047,141906
1630934635513,22814,223099,141906
1630934635523,22809,223020,141890
1630934635533,22807,223077,141895
1630934635543,22803,223047,141894
1630934635553,22805,223049,141914
1630934635563,22813,223077,141928
1630934635573,22816,223082,141919
1630934635583,22813,223082,141904
1630934635593,22809,223087,141901
1630934635603,22810,223077,141904
1630934635613,22808,223055,141890
1630934635623,22811,223054,141903
1630934635633,22810,223065,141907
1630934635643,22809,223050,141894
1630934635653,22813,223086,141911
1630934635663,22814,223060,141917
1630934635673,22808,223078,141939
1630934635683,22813,223093,141921
1630934635693,22808,223105,141926
1630934635703,22812,223103,141939
1630934635713,22809,223112,141939
1630934635723,22827,223117,141977
1630934635733,22824,223154,141969
1630934635743,22828,223180,142002
1630934635753,22831,223210,142010
1630934635763,22837,223215,142041
1630934635773,22839,223225,142037
1630934635783,22843,223292,142073
1630934635793,22849,223292,142059
1630934635803,22843,223308,142097
1630934635813,22848,223301,142088
1630934635823,22851,223322,142108
1630934635833,22851,223368,142103
1630934635843,22849,223317,142100
1630934635853,22862,223356,142065
1630934635863,22859,223283,142056
1630934635873,22845,223309,142020
1630934635883,22845,223276,142036
1630934635893,22841,223272,142014
1630934635903,22840,223246,142021
1630934635913,22839,223283,142004
1630934635923,22841,223278,141993
1630934635933,22828,223238,141942
1630934635943,22824,223218,141935
1630934635953,22819,223202,141888
1630934635963,22815,223179,141882
1630934635973,22809,223168,141854
1630934635983,22799,223154,141822
1630934635993,22796,223098,141785
1630934636003,22794,223098,141766
1630934636013,22780,223089,141761
1630934636023,22794,223085,141732
1630934636033,22789,223078,141748
1630934636043,22788,223039,141731
1630934636053,22778,223099,141733
1630934636063,22781,223039,141719
1630934636073,22783,223064,141711
1630934636083,22775,223043,141705
1630934636093,22766,223024,141675
1630934636103,22761,222978,141630
1630934636113,22748,222953,141607
1630934636123,22738,222908,141581
1630934636133,22739,222906,141565
1630934636143,22731,222896,141552
1630934636153,22732,222901,141565
1630934636163,22736,222878,141550
1630934636173,22739,222900,141567
1630934636183,22738,222899,141553
1630934636193,22730,222895,141581
1630934636203,22746,222939,141563
1630934636213,22738,222914,141560
1630934636223,22732,222891,141570
1630934636233,22734,222885,141528
1630934636243,22729,222868,141542
1630934636253,22726,222874,141541
1630934636263,22721,222824,141518
1630934636273,22715,222839,141496
1630934636283,22708,222801,141487
1630934636293,22706,222850,141480
1630934636303,22696,222832,141465
1630934636313,22702,222783,141463
1630934636323,22697,222819,141458
1630934636333,22701,222800,141470
1630934636343,22693,222752,141434
1630934636353,22675,222729,141397
1630934636363,22665,222714,141376
1630934636373,22663,222701,141364
1630934636383,22663,222713,141375
1630934636393,22663,222715,141394
1630934636403,22666,222722,141389
1630934636413,22675,222755,141404
1630934636423,22674,222743,141419
1630934636433,22679,222767,141411
1630934636443,22684,222748,141417
1630934636453,22685,222779,141443
1630934636463,22691,222804,141463
1630934636473,22703,222848,141492
1630934636483,22721,222840,141518
1630934636493,22721,222896,141540
1630934636503,22721,222837,141532
1630934636513,22722,222872,141545
1630934636523,22726,222862,141519
1630934636533,22717,222876,141522
1630934636543,22719,222858,141506
1630934636553,22713,222829,141486
1630934636563,22703,222819,141455
1630934636573,22701,222800,141435
1630934636583,22692,222784,141400
1630934636593,22692,222771,141408
1630934636603,22687,222746,141395
1630934636613,22682,222733,141365
1630934636623,22675,222741,141362
1630934636633,22668,222697,141305
1630934636643,22646,222687,141235
1630934636653,22613,222554,141109
1630934636663,22583,222480,140985
1630934636673,22534,222347,140795
1630934636683,22463,222156,140570
1630934636693,22400,221992,140333
1630934636703,22289,221758,139962
1630934636713,22176,221498,139586
1630934636723,22053,221229,139179
1630934636733,21942,220965,138808
1630934636743,21859,220762,138570
1630934636753,21796,220576,138369
1630934636763,21737,220453,138199
1630934636773,21685,220295,137992
1630934636783,21625,220120,137798
1630934636793,21562,219978,137612
1630934636803,21533,219910,137498
1630934636813,21500,219862,137427
1630934636823,21486,219782,137403
1630934636833,21471,219825,137384
1630934636843,21471,219782,137362
1630934636853,21454,219748,137322
1630934636863,21451,219735,137320
1630934636873,21442,219745,137314
1630934636883,21448,219754,137327
1630934636893,21456,219735,137354
1630934636903,21459,219794,137383
1630934636913,21469,219832,137412
1630934636923,21473,219852,137434
1630934636933,21474,219864,137463
1630934636943,21479,219842,137481
1630934636953,21484,219857,137489
1630934636963,21490,219913,137557
1630934636973,21513,219948,137619
1630934636983,21546,220034,137710
1630934636993,21570,220080,137777
1630934637003,21588,220142,137835
1630934637013,21621,220185,137895
1630934637023,21625,220240,137920
1630934637033,21648,220265,137960
1630934637043,21660,220286,138008
1630934637053,21663,220311,138033
1630934637063,21676,220357,138054
1630934637073,21688,220366,138120
1630934637083,21698,220405,138148
1630934637093,21705,220418,138163
1630934637103,21712,220436,138196
1630934637113,21715,220463,138224
1630934637123,21731,220467,138252
1630934637133,21736,220523,138261
1630934637143,21736,220550,138290
1630934637153,21746,220530,138312
1630934637163,21761,220574,138314
1630934637173,21759,220565,138345
1630934637183,21747,220556,138344
1630934637193,21747,220575,138333
1630934637203,21746,220580,138329
1630934637213,21746,220553,138317
1630934637223,21753,220549,138347
1630934637233,21754,220551,138363
1630934637243,21758,220546,138382
1630934637253,21742,220541,138347
1630934637263,21739,220528,138360
1630934637273,21744,220532,138347
1630934637283,21748,220526,138363
1630934637293,21747,220510,138386
1630934637303,21744,220540,138395
1630934637313,21744,220525,138387
1630934637323,21740,220493,138406
1630934637333,21736,220493,138385
1630934637343,21726,220504,138405
1630934637353,21739,220522,138418
1630934637363,21739,220508,138418
1630934637373,21740,220517,138436
1630934637383,21745,220547,138452
1630934637393,21754,220551,138503
1630934637403,21755,220584,138520
1630934637413,21761,220564,138552
1630934637423,21772,220621,138590
1630934637433,21792,220670,138660
1630934637443,21810,220706,138752
1630934637453,21832,220779,138819
1630934637463,21845,220824,138908
1630934637473,21875,220880,138959
1630934637483,21901,220906,139039
1630934637493,21906,220941,139085
1630934637503,21920,221019,139139
1630934637513,21932,221019,139156
1630934637523,21933,221018,139196
1630934637533,21936,221052,139194
1630934637543,21943,221045,139224
1630934637553,21955,221083,139254
1630934637563,21966,221078,139283
1630934637573,21971,221156,139320
1630934637583,21981,221160,139346
1630934637593,21991,221176,139401
1630934637603,22002,221205,139424
1630934637613,22010,221212,139434
1630934637623,22013,221238,139449
1630934637633,22026,221241,139496
1630934637643,22031,221200,139519
1630934637653,22035,221221,139526
1630934637663,22041,221287,139560
1630934637673,22044,221333,139579
1630934637683,22054,221314,139594
1630934637693,22057,221320,139612
1630934637703,22062,221327,139625
1630934637713,22069,221339,139625
1630934637723,22071,221373,139663
1630934637733,22079,221410,139692
1630934637743,22089,221421,139719
1630934637753,22093,221443,139747
1630934637763,22095,221417,139736
1630934637773,22092,221415,139761
1630934637783,22093,221414,139755
1630934637793,22088,221422,139757
1630934637803,22087,221368,139737
1630934637813,22077,221386,139774
1630934637823,22090,221343,139771
1630934637833,22085,221372,139787
1630934637843,22080,221382,139787
1630934637853,22080,221360,139784
1630934637863,22078,221365,139790
1630934637873,22073,221366,139831
1630934637883,22080,221368,139837
1630934637893,22083,221355,139870
1630934637903,22092,221383,139880
1630934637913,22089,221385,139918
1630934637923,22090,221427,139934
1630934637933,22091,221422,139942
1630934637943,22097,221415,139964
1630934637953,22102,221400,139961
1630934637963,22106,221453,139981
1630934637973,22094,221433,139983
1630934637983,22120,221472,140012
1630934637993,22116,221443,140032
1630934638003,22116,221482,140069
1630934638013,22122,221474,140086
1630934638023,22132,221488,140109
1630934638033,22137,221519,140128
1630934638043,22147,221542,140156
1630934638053,22149,221581,140179
1630934638063,22160,221605,140232
1630934638073,22172,221633,140270
1630934638083,22177,221628,140331
1630934638093,22199,221663,140360
1630934638103,22208,221730,140382
1630934638113,22218,221725,140422
1630934638123,22228,221738,140451
1630934638133,22239,221800,140497
1630934638143,22235,221795,140509
1630934638153,22250,221825,140538
1630934638163,22259,221883,140602
1630934638173,22275,221902,140620
1630934638183,22283,221909,140653
1630934638193,22291,221955,140699
1630934638203,22301,221970,140736
1630934638213,22316,221997,140759
1630934638223,22326,222044,140779
1630934638233,22334,222064,140820
1630934638243,22338,222036,140818
1630934638253,22341,222089,140855
1630934638263,22349,222100,140863
1630934638273,22348,222123,140867
1630934638283,22358,222135,140881
1630934638293,22354,222145,140864
1630934638303,22354,222143,140897
1630934638313,22341,222131,140883
1630934638323,22348,222074,140899
1630934638333,22342,222121,140899
1630934638343,22341,222125,140920
1630934638353,22339,222129,140930
1630934638363,22339,222126,140961
1630934638373,22337,222131,140965
1630934638383,22327,222141,140961
1630934638393,22327,222126,140978
1630934638403,22316,222119,140999
1630934638413,22312,222120,140987
1630934638423,22314,222130,140995
1630934638433,22309,222145,140995
1630934638443,22302,222154,141020
1630934638453,22304,222143,141012
1630934638463,22292,222145,141009
1630934638473,22293,222124,140990
1630934638483,22275,222076,140974
1630934638493,22265,222079,140996
1630934638503,22269,222099,140991
1630934638513,22264,222095,140981
1630934638523,22264,222099,140982
1630934638533,22257,222093,140997
1630934638543,22260,222118,140995
1630934638553,22251,222103,140988
1630934638563,22241,222103,140975
1630934638573,22232,222112,140969
1630934638583,22215,222070,140935
1630934638593,22203,222040,140927
1630934638603,22186,222070,140900
1630934638613,22175,222056,140875
1630934638623,22170,222072,140879
1630934638633,22172,222053,140863
1630934638643,22174,222052,140857
1630934638653,22160,222037,140844
1630934638663,22157,222066,140860
1630934638673,22154,222035,140878
1630934638683,22158,222056,140847
1630934638693,22158,222054,140846
1630934638703,22154,222027,140839
1630934638713,22148,222043,140822
1630934638723,22143,222026,140800
1630934638733,22134,221999,140744
1630934638743,22112,221959,140661
1630934638753,22086,221858,140577
1630934638763,22060,221852,140491
1630934638773,22048,221823,140470
1630934638783,22062,221821,140498
1630934638793,22074,221881,140545
1630934638803,22098,221909,140573
1630934638813,22117,221951,140635
1630934638823,22133,221977,140649
1630934638833,22126,221930,140644
1630934638843,22127,221925,140634
1630934638853,22120,221937,140613
1630934638863,22111,221849,140578
1630934638873,22089,221849,140532
1630934638883,22071,221786,140499
1630934638893,22057,221772,140488
1630934638903,22048,221747,140486
1630934638913,22037,221725,140509
1630934638923,22032,221705,140474
1630934638933,22016,221707,140525
1630934638943,22022,221686,140511
1630934638953,22013,221707,140542
1630934638963,22027,221687,140529
1630934638973,22014,221666,140554
1630934638983,22006,221666,140548
1630934638993,22001,221647,140518
1630934639003,21992,221607,140517
1630934639013,21981,221598,140491
1630934639023,21981,221597,140503
1630934639033,21968,221582,140505
1630934639043,21969,221594,140510
1630934639053,21971,221576,140515
1630934639063,21978,221561,140554
1630934639073,21977,221611,140565
1630934639083,21972,221607,140566
1630934639093,21969,221583,140560
1630934639103,21979,221601,140580
1630934639113,21974,221602,140555
1630934639123,21972,221594,140533
1630934639133,21958,221557,140523
1630934639143,21951,221572,140523
1630934639153,21951,221601,140504
1630934639163,21945,221540,140524
1630934639173,21941,221531,140503
1630934639183,21936,221528,140486
1630934639193,21934,221502,140504
1630934639203,21940,221535,140495
1630934639213,21943,221543,140518
1630934639223,21950,221598,140558
1630934639233,21963,221579,140594
1630934639243,21971,221598,140605
1630934639253,21977,221581,140613
1630934639263,21972,221568,140611
1630934639273,21969,221598,140599
1630934639283,21969,221556,140600
1630934639293,21975,221568,140538
1630934639303,21966,221554,140579
1630934639313,21970,221553,140604
1630934639323,21973,221568,140611
1630934639333,21979,221595,140625
1630934639343,21986,221599,140651
1630934639353,21991,221626,140701
1630934639363,22006,221700,140743
1630934639373,22007,221697,140751
1630934639383,22012,221680,140750
1630934639393,22006,221691,140746
1630934639403,22010,221638,140721
1630934639413,22005,221638,140709
1630934639423,22007,221641,140697
1630934639433,22008,221668,140711
1630934639443,22020,221654,140737
1630934639453,22032,221687,140803
1630934639463,22052,221753,140875
1630934639473,22064,221833,140951
1630934639483,22080,221912,141062
1630934639493,22086,221932,141117
1630934639503,22082,221954,141140
1630934639513,22073,221945,141156
1630934639523,22071,221895,141170
1630934639533,22071,221919,141186
1630934639543,22077,221902,141241
1630934639553,22103,221984,141341
1630934639563,22144,222090,141497
1630934639573,22161,222119,141589
1630934639583,22156,222155,141606
1630934639593,22145,222121,141610
1630934639603,22143,222094,141592
1630934639613,22138,222099,141599
1630934639623,22148,222030,141593
1630934639633,22145,222016,141589
1630934639643,22132,221980,141559
1630934639653,22120,221935,141562
1630934639663,22125,221913,141586
1630934639673,22131,221927,141602
1630934639683,22141,221941,141640
1630934639693,22172,221963,141701
1630934639703,22198,221972,141740
1630934639713,22208,221990,141779
1630934639723,22223,222018,141906
1630934639733,22223,222026,141925
1630934639743,22227,222057,141960
1630934639753,22241,222058,141979
1630934639763,22228,222050,142007
1630934639773,22234,222072,142044
1630934639783,22235,222077,142040
1630934639793,22227,222049,141980
1630934639803,22202,221936,141912
1630934639813,22200,221953,141887
1630934639823,22212,222006,141963
1630934639833,22261,222162,142104
1630934639843,22298,222237,142221
1630934639853,22301,222269,142254
1630934639863,22313,222281,142237
1630934639873,22316,222292,142268
1630934639883,22322,222288,142261
1630934639893,22335,222310,142306
1630934639903,22353,222347,142327
1630934639913,22368,222398,142353
1630934639923,22365,222382,142321
1630934639933,22362,222356,142308
1630934639943,22369,222335,142290
1630934639953,22363,222300,142277
1630934639963,22362,222337,142273
1630934639973,22362,222318,142301
1630934639983,22358,222352,142290
1630934639993,22353,222384,142325
1630934640003,22344,222347,142283
1630934640013,22332,222334,142255
1630934640023,22326,222319,142246
1630934640033,22307,222252,142204
1630934640043,22296,222215,142177
1630934640053,22284,222177,142165
1630934640063,22289,222227,142194
1630934640073,22298,222233,142256
1630934640083,22331,222295,142348
1630934640093,22377,222344,142445
1630934640103,22407,222431,142556
1630934640113,22395,222417,142544
1630934640123,22392,222413,142502
1630934640133,22363,222337,142440
1630934640143,22330,222301,142355
1630934640153,22278,222216,142204
1630934640163,22229,222055,142080
1630934640173,22185,221954,141979
1630934640183,22159,221846,141892
1630934640193,22145,221783,141838
1630934640203,22163,221832,141897
1630934640213,22192,221888,142019
1630934640223,22211,221927,142086
1630934640233,22214,221962,142128
1630934640243,22203,221936,142144
1630934640253,22213,221943,142154
1630934640263,22300,222097,142413
1630934640273,22396,222334,142719
1630934640283,22487,222475,142966
1630934640293,22536,222585,143111
1630934640303,22557,222665,143184
1630934640313,22555,222625,143204
1630934640323,22553,222691,143235
1630934640333,22579,222742,143318
1630934640343,22595,222809,143379
1630934640353,22604,222831,143408
1630934640363,22616,222848,143414
1630934640373,22625,222801,143385
1630934640383,22624,222793,143346
1630934640393,22630,222774,143337
1630934640403,22622,222801,143298
1630934640413,22638,222798,143313
1630934640423,22648,222851,143351
1630934640433,22661,222883,143379
1630934640443,22683,222902,143419
1630934640453,22706,222997,143483
1630934640463,22728,223041,143531
1630934640473,22741,223025,143521
1630934640483,22733,223019,143501
1630934640493,22730,222985,143462
1630934640503,22711,222943,143421
1630934640513,22702,222933,143385
1630934640523,22701,222956,143386
1630934640533,22709,222951,143394
1630934640543,22701,222969,143376
1630934640553,22715,222952,143397
1630934640563,22714,222997,143388
1630934640573,22710,223000,143352
1630934640583,22717,222948,143351
1630934640593,22718,222976,143344
1630934640603,22719,222992,143339
1630934640613,22714,222974,143321
1630934640623,22711,222959,143315
1630934640633,22709,222935,143313
1630934640643,22700,222930,143326
1630934640653,22694,222931,143324
1630934640663,22683,222926,143302
1630934640673,22687,222901,143296
1630934640683,22683,222885,143301
1630934640693,22675,222891,143308
1630934640703,22678,222921,143314
1630934640713,22690,222923,143354
1630934640723,22683,222922,143357
1630934640733,22687,222964,143368
1630934640743,22683,222974,143403
1630934640753,22675,222938,143388
1630934640763,22661,222924,143353
1630934640773,22634,222889,143275
1630934640783,22613,222838,143201
1630934640793,22587,222822,143144
1630934640803,22565,222744,143082
1630934640813,22547,222735,143046
1630934640823,22539,222722,143024
1630934640833,22539,222699,143030
1630934640843,22540,222700,143031
1630934640853,22542,222754,143025
1630934640863,22540,222703,143013
1630934640873,22524,222693,142986
1630934640883,22526,222677,142962
1630934640893,22510,222655,142893
1630934640903,22500,222657,142881
1630934640913,22499,222656,142863
1630934640923,22494,222610,142828
1630934640933,22492,222637,142838
1630934640943,22494,222615,142834
1630934640953,22497,222610,142820
1630934640963,22502,222614,142835
1630934640973,22502,222604,142800
1630934640983,22492,222574,142781
1630934640993,22490,222543,142740
1630934641003,22484,222519,142736
1630934641013,22477,222541,142700
1630934641023,22476,222561,142699
1630934641033,22482,222536,142692
1630934641043,22481,222556,142696
1630934641053,22481,222551,142681
1630934641063,22496,222544,142668
1630934641073,22485,222591,142672
1630934641083,22496,222558,142653
1630934641093,22493,222536,142633
1630934641103,22480,222556,142584
1630934641113,22468,222511,142539
1630934641123,22455,222436,142500
1630934641133,22457,222499,142477
1630934641143,22461,222487,142482
1630934641153,22462,222507,142483
1630934641163,22471,222476,142469
1630934641173,22470,222425,142418
1630934641183,22456,222415,142398
1630934641193,22449,222387,142369
1630934641203,22439,222355,142344
1630934641213,22395,222263,142198
1630934641223,22368,222217,142156
1630934641233,22364,222209,142092
1630934641243,22353,222160,142063
1630934641253,22348,222168,142065
1630934641263,22353,222158,142051
1630934641273,22352,222100,142046
1630934641283,22352,222095,142040
1630934641293,22344,222064,142034
1630934641303,22348,222061,142036
1630934641313,22358,222108,142038
1630934641323,22361,222114,142066
1630934641333,22371,222105,142104
1630934641343,22380,222149,142115
1630934641353,22396,222151,142183
1630934641363,22418,222195,142224
1630934641373,22435,222228,142287
1630934641383,22463,222267,142361
1630934641393,22484,222337,142468
1630934641403,22515,222428,142534
1630934641413,22534,222491,142624
1630934641423,22561,222536,142687
1630934641433,22589,222604,142742
1630934641443,22612,222621,142795
1630934641453,22627,222614,142805
1630934641463,22635,222626,142815
1630934641473,22648,222625,142821
1630934641483,22659,222595,142824
1630934641493,22679,222689,142844
1630934641503,22694,222684,142886
1630934641513,22711,222719,142904
1630934641523,22711,222710,142915
1630934641533,22722,222716,142907
1630934641543,22714,222703,142910
1630934641553,22726,222688,142900
1630934641563,22721,222693,142875
1630934641573,22722,222683,142850
1630934641583,22723,222672,142837
1630934641593,22715,222653,142786
1630934641603,22712,222602,142753
1630934641613,22697,222592,142731
1630934641623,22694,222558,142696
1630934641633,22695,222533,142693
1630934641643,22692,222562,142665
1630934641653,22693,222536,142630
1630934641663,22683,222516,142622
1630934641673,22675,222474,142559
1630934641683,22670,222428,142524
1630934641693,22639,222376,142443
1630934641703,22625,222329,142373
1630934641713,22597,222322,142303
1630934641723,22592,222278,142248
1630934641733,22583,222202,142208
1630934641743,22563,222160,142159
1630934641753,22543,222118,142094
1630934641763,22530,222117,142056
1630934641773,22505,222049,142029
1630934641783,22488,221995,141985
1630934641793,22464,221942,141920
1630934641803,22453,221921,141880
1630934641813,22436,221843,141822
1630934641823,22419,221815,141779
1630934641833,22397,221770,141718
1630934641843,22375,221739,141670
1630934641853,22359,221685,141592
1630934641863,22346,221651,141552
1630934641873,22339,221668,141531
1630934641883,22331,221608,141509
1630934641893,22326,221623,141499
1630934641903,22320,221613,141505
1630934641913,22322,221592,141476
1630934641923,22323,221598,141487
1630934641933,22323,221586,141507
1630934641943,22329,221586,141492
1630934641953,22324,221587,141459
1630934641963,22321,221582,141452
1630934641973,22318,221564,141411
1630934641983,22320,221546,141410
1630934641993,22329,221537,141421
1630934642003,22339,221577,141469
1630934642013,22349,221628,141528
1630934642023,22377,221706,141592
1630934642033,22402,221716,141659
1630934642043,22418,221797,141734
1630934642053,22441,221822,141806
1630934642063,22457,221877,141864
1630934642073,22470,221910,141883
1630934642083,22483,221923,141920
1630934642093,22481,221968,141921
1630934642103,22484,221985,141920
1630934642113,22477,222020,141892
1630934642123,22474,221980,141906
1630934642133,22476,221993,141894
1630934642143,22477,221990,141920
1630934642153,22478,222023,141900
1630934642163,22469,221999,141873
1630934642173,22471,221986,141859
1630934642183,22464,221973,141794
1630934642193,22457,221961,141756
1630934642203,22447,221911,141751
1630934642213,22444,221909,141756
1630934642223,22442,221963,141749
1630934642233,22446,221963,141761
1630934642243,22446,221994,141748
1630934642253,22435,221925,141730
1630934642263,22408,221893,141611
1630934642273,22388,221892,141566
1630934642283,22366,221806,141472
1630934642293,22349,221791,141420
1630934642303,22334,221720,141360
1630934642313,22315,221665,141317
1630934642323,22304,221639,141252
1630934642333,22283,221574,141201
1630934642343,22247,221558,141141
1630934642353,22235,221522,141079
1630934642363,22224,221484,141049
1630934642373,22199,221462,141018
1630934642383,22185,221449,140981
1630934642393,22183,221430,140961
1630934642403,22174,221396,140965
1630934642413,22178,221409,140956
1630934642423,22175,221386,140947
1630934642433,22164,221375,140952
1630934642443,22162,221340,140904
1630934642453,22146,221317,140865
1630934642463,22137,221291,140826
1630934642473,22136,221321,140812
1630934642483,22134,221258,140830
1630934642493,22121,221282,140824
1630934642503,22128,221309,140812
1630934642513,22132,221286,140806
1630934642523,22136,221314,140808
1630934642533,22123,221316,140847
1630934642543,22133,221324,140839
1630934642553,22140,221331,140845
1630934642563,22151,221345,140848
1630934642573,22151,221372,140891
1630934642583,22165,221414,140907
1630934642593,22175,221397,140951
1630934642603,22185,221443,140968
1630934642613,22195,221465,141028
1630934642623,22207,221474,141042
1630934642633,22214,221458,141041
1630934642643,22221,221470,141054
1630934642653,22221,221507,141089
1630934642663,22238,221523,141107
1630934642673,22247,221543,141144
1630934642683,22251,221554,141170
1630934642693,22261,221575,141156
1630934642703,22260,221549,141155
1630934642713,22253,221570,141139
1630934642723,22255,221544,141135
1630934642733,22255,221531,141108
1630934642743,22250,221523,141103
1630934642753,22247,221539,141077
1630934642763,22242,221531,141042
1630934642773,22239,221501,141052
1630934642783,22232,221478,140988
1630934642793,22224,221485,140959
1630934642803,22216,221447,140954
1630934642813,22217,221439,140943
1630934642823,22213,221492,140943
1630934642833,22218,221488,140935
1630934642843,22230,221483,140931
1630934642853,22209,221490,140923
1630934642863,22223,221493,140923
1630934642873,22220,221486,140913
1630934642883,22216,221440,140863
1630934642893,22208,221423,140828
1630934642903,22196,221438,140801
1630934642913,22181,221366,140751
1630934642923,22174,221326,140694
1630934642933,22168,221308,140682
1630934642943,22163,221313,140659
1630934642953,22172,221299,140688
1630934642963,22176,221312,140745
1630934642973,22176,221326,140772
1630934642983,22175,221334,140809
1630934642993,22168,221345,140784
1630934643003,22151,221322,140768
1630934643013,22156,221300,140760
1630934643023,22156,221295,140794
1630934643033,22160,221326,140783
1630934643043,22162,221310,140816
1630934643053,22164,221325,140810
1630934643063,22163,221282,140806
1630934643073,22160,221299,140814
1630934643083,22152,221322,140806
1630934643093,22152,221318,140805
1630934643103,22145,221321,140803
1630934643113,22143,221270,140806
1630934643123,22142,221285,140778
1630934643133,22147,221288,140807
1630934643143,22153,221295,140801
1630934643153,22153,221323,140797
1630934643163,22147,221333,140794
1630934643173,22153,221315,140800
1630934643183,22153,221305,140800
1630934643193,22147,221327,140803
1630934643203,22152,221332,140800
1630934643213,22147,221325,140811
1630934643223,22142,221324,140755
1630934643233,22118,221262,140700
1630934643243,22111,221237,140687
1630934643253,22112,221260,140691
1630934643263,22118,221264,140704
1630934643273,22119,221279,140734
1630934643283,22136,221272,140731
1630934643293,22137,221307,140759
1630934643303,22136,221317,140765
1630934643313,22144,221324,140754
1630934643323,22139,221314,140753
1630934643333,22143,221336,140731
1630934643343,22129,221291,140700
1630934643353,22123,221293,140655
1630934643363,22110,221276,140635
1630934643373,22103,221242,140603
1630934643383,22104,221208,140601
1630934643393,22105,221229,140580
1630934643403,22107,221243,140597
1630934643413,22119,221267,140635
1630934643423,22119,221290,140625
1630934643433,22124,221298,140636
1630934643443,22121,221281,140644
1630934643453,22125,221262,140623
1630934643463,22122,221278,140616
1630934643473,22121,221287,140589
1630934643483,22122,221239,140579
1630934643493,22107,221246,140563
1630934643503,22110,221235,140531
1630934643513,22109,221234,140548
1630934643523,22115,221225,140555
1630934643533,22120,221260,140582
1630934643543,22117,221232,140568
1630934643553,22116,221182,140562
1630934643563,22101,221192,140528
1630934643573,22091,221124,140496
1630934643583,22074,221103,140481
1630934643593,22065,221075,140455
1630934643603,22052,221053,140429
1630934643613,22050,221017,140426
1630934643623,22042,221015,140429
1630934643633,22046,221026,140432
1630934643643,22041,220996,140450
1630934643653,22046,220988,140455
1630934643663,22046,221002,140463
1630934643673,22030,221018,140456
1630934643683,22045,220980,140477
1630934643693,22057,220988,140499
1630934643703,22054,221004,140503
1630934643713,22042,220995,140509
1630934643723,22037,220987,140489
1630934643733,22037,221001,140501
1630934643743,22039,220998,140521
1630934643753,22051,221024,140552
1630934643763,22049,221036,140593
1630934643773,22057,221043,140602
1630934643783,22060,221087,140610
1630934643793,22064,221080,140630
1630934643803,22069,221086,140661
1630934643813,22067,221097,140672
1630934643823,22076,221115,140687
1630934643833,22082,221108,140702
1630934643843,22075,221086,140681
1630934643853,22068,221122,140642
1630934643863,22064,221093,140633
1630934643873,22061,221047,140600
1630934643883,22052,221016,140575
1630934643893,22040,221016,140586
1630934643903,22038,220981,140539
1630934643913,22023,220978,140493
1630934643923,22005,220939,140435
1630934643933,21980,220928,140348
1630934643943,21947,220830,140246
1630934643953,21927,220749,140103
1630934643963,21896,220667,140026
1630934643973,21872,220635,139947
1630934643983,21849,220587,139846
1630934643993,21834,220559,139841
1630934644003,21823,220526,139789
1630934644013,21817,220538,139814
1630934644023,21827,220573,139840
1630934644033,21845,220623,139910
1630934644043,21856,220661,139999
1630934644053,21873,220731,140042
1630934644063,21881,220721,140088
1630934644073,21878,220713,140099
1630934644083,21879,220745,140120
1630934644093,21886,220766,140157
1630934644103,21896,220773,140189
1630934644113,21905,220799,140211
1630934644123,21901,220774,140232
1630934644133,21903,220783,140227
1630934644143,21897,220803,140237
1630934644153,21902,220768,140262
1630934644163,21895,220808,140254
1630934644173,21894,220813,140288
1630934644183,21890,220779,140264
1630934644193,21883,220779,140279
1630934644203,21875,220773,140262
1630934644213,21866,220754,140244
1630934644223,21853,220693,140199
1630934644233,21830,220680,140172
1630934644243,21816,220628,140117
1630934644253,21804,220614,140090
1630934644263,21797,220588,140054
1630934644273,21786,220554,140066
1630934644283,21780,220518,140038
1630934644293,21780,220511,140024
1630934644303,21772,220522,140027
1630934644313,21763,220503,140010
1630934644323,21762,220482,140007
1630934644333,21755,220484,139966
1630934644343,21749,220440,139970
1630934644353,21748,220485,139968
1630934644363,21755,220464,139984
1630934644373,21755,220484,139991
1630934644383,21760,220479,140007
1630934644393,21768,220510,140008
1630934644403,21772,220515,140054
1630934644413,21774,220508,140055
1630934644423,21775,220548,140059
1630934644433,21769,220507,140036
1630934644443,21767,220503,140000
1630934644453,21743,220445,139975
1630934644463,21729,220436,139906
1630934644473,21705,220384,139853
1630934644483,21711,220351,139825
1630934644493,21696,220317,139842
1630934644503,21700,220351,139824
1630934644513,21693,220318,139807
1630934644523,21685,220299,139786
1630934644533,21669,220251,139736
1630934644543,21657,220239,139692
1630934644553,21648,220211,139695
1630934644563,21655,220247,139676
1630934644573,21647,220273,139646
1630934644583,21637,220194,139596
1630934644593,21638,220191,139556
1630934644603,21626,220208,139522
1630934644613,21622,220154,139496
1630934644623,21626,220194,139480
1630934644633,21622,220172,139484
1630934644643,21636,220206,139505
1630934644653,21644,220258,139552
1630934644663,21665,220296,139616
1630934644673,21686,220368,139699
1630934644683,21701,220464,139773
1630934644693,21719,220479,139826
1630934644703,21727,220529,139896
1630934644713,21738,220607,139936
1630934644723,21740,220585,139934
1630934644733,21746,220574,139981
1630934644743,21750,220599,140027
1630934644753,21761,220610,140057
1630934644763,21770,220644,140095
1630934644773,21782,220669,140130
1630934644783,21771,220661,140163
1630934644793,21774,220665,140178
1630934644803,21768,220704,140191
1630934644813,21764,220665,140209
1630934644823,21755,220633,140204
1630934644833,21752,220640,140195
1630934644843,21745,220600,140199
1630934644853,21738,220582,140171
1630934644863,21722,220568,140148
1630934644873,21723,220573,140144
1630934644883,21717,220516,140120
1630934644893,21713,220537,140128
1630934644903,21700,220509,140105
1630934644913,21695,220537,140100
1630934644923,21690,220494,140069
1630934644933,21677,220470,140054
1630934644943,21665,220446,140019
1630934644953,21664,220440,139992
1630934644963,21653,220418,139952
1630934644973,21646,220401,139941
1630934644983,21642,220421,139935
1630934644993,21649,220446,139938
1630934645003,21654,220472,139954
1630934645013,21660,220492,139986
1630934645023,21663,220517,140004
1630934645033,21666,220522,140024
1630934645043,21676,220533,140040
1630934645053,21679,220555,140091
1630934645063,21692,220555,140102
1630934645073,21709,220619,140140
1630934645083,21709,220640,140176
1630934645093,21729,220647,140204
1630934645103,21738,220695,140225
1630934645113,21750,220703,140273
1630934645123,21737,220745,140294
1630934645133,21751,220754,140300
1630934645143,21756,220752,140311
1630934645153,21762,220783,140308
1630934645163,21772,220784,140347
1630934645173,21789,220827,140373
1630934645183,21801,220879,140400
1630934645193,21805,220903,140410
1630934645203,21810,220909,140426
1630934645213,21823,220982,140451
1630934645223,21840,220980,140486
1630934645233,21844,221016,140523
1630934645243,21844,221028,140522
1630934645253,21825,221030,140504
1630934645263,21819,220928,140425
1630934645273,21811,220896,140405
1630934645283,21808,220929,140363
1630934645293,21785,220860,140367
1630934645303,21797,220886,140365
1630934645313,21794,220850,140330
1630934645323,21799,220845,140324
1630934645333,21794,220816,140324
1630934645343,21795,220848,140322
1630934645353,21789,220815,140311
1630934645363,21790,220798,140292
1630934645373,21777,220727,140258
1630934645383,21754,220687,140224
1630934645393,21737,220667,140177
1630934645403,21717,220569,140148
1630934645413,21698,220557,140127
1630934645423,21695,220535,140099
1630934645433,21664,220483,140048
1630934645443,21660,220443,140044
1630934645453,21652,220397,140026
1630934645463,21650,220385,140056
1630934645473,21651,220387,140050
1630934645483,21649,220444,140070
1630934645493,21654,220424,140121
1630934645503,21653,220492,140157
1630934645513,21669,220473,140215
1630934645523,21679,220588,140270
1630934645533,21681,220570,140303
1630934645543,21671,220550,140259
1630934645553,21667,220515,140240
1630934645563,21663,220538,140201
1630934645573,21650,220507,140185
1630934645583,21662,220536,140205
1630934645593,21658,220518,140198
1630934645603,21672,220542,140218
1630934645613,21683,220553,140226
1630934645623,21688,220586,140286
1630934645633,21704,220620,140345
1630934645643,21722,220659,140378
1630934645653,21727,220681,140412
1630934645663,21738,220702,140439
1630934645673,21742,220772,140472
1630934645683,21755,220778,140510
1630934645693,21757,220717,140524
1630934645703,21762,220777,140500
1630934645713,21759,220736,140506
1630934645723,21754,220734,140473
1630934645733,21759,220762,140504
1630934645743,21758,220766,140487
1630934645753,21772,220748,140507
1630934645763,21792,220772,140541
1630934645773,21805,220811,140637
1630934645783,21820,220865,140666
1630934645793,21832,220932,140711
1630934645803,21837,220947,140730
1630934645813,21842,220914,140721
1630934645823,21847,220938,140745
1630934645833,21848,220930,140747
1630934645843,21857,220954,140754
1630934645853,21855,220932,140750
1630934645863,21852,220915,140735
1630934645873,21858,220927,140731
1630934645883,21857,220937,140728
1630934645893,21858,220912,140723
1630934645903,21861,220919,140714
1630934645913,21866,220949,140710
1630934645923,21856,220936,140731
1630934645933,21862,220917,140724
1630934645943,21871,220962,140716
1630934645953,21872,220960,140709
1630934645963,21875,220952,140690
1630934645973,21867,220909,140696
1630934645983,21861,220877,140688
1630934645993,21854,220884,140657
1630934646003,21851,220855,140694
1630934646013,21837,220831,140663
1630934646023,21825,220813,140648
1630934646033,21808,220773,140630
1630934646043,21797,220734,140616
1630934646053,21787,220714,140586
1630934646063,21780,220681,140529
1630934646073,21762,220657,140531
1630934646083,21770,220637,140520
1630934646093,21750,220641,140533
1630934646103,21747,220588,140523
1630934646113,21743,220625,140492
1630934646123,21744,220607,140494
1630934646133,21738,220632,140470
1630934646143,21734,220579,140483
1630934646153,21736,220604,140473
1630934646163,21735,220589,140474
1630934646173,21737,220576,140484
1630934646183,21735,220552,140490
1630934646193,21741,220598,140500
1630934646203,21739,220580,140496
1630934646213,21750,220572,140495
1630934646223,21759,220589,140517
1630934646233,21759,220640,140528
1630934646243,21760,220615,140533
1630934646253,21765,220607,140533
1630934646263,21751,220626,140564
1630934646273,21762,220601,140527
1630934646283,21757,220643,140520
1630934646293,21763,220641,140526
1630934646303,21761,220617,140526
1630934646313,21767,220611,140541
1630934646323,21767,220608,140556
1630934646333,21770,220628,140569
1630934646343,21775,220641,140534
1630934646353,21780,220644,140555
1630934646363,21784,220652,140543
1630934646373,21792,220629,140579
1630934646383,21798,220675,140576
1630934646393,21798,220638,140591
1630934646403,21799,220672,140576
1630934646413,21793,220695,140561
1630934646423,21806,220654,140567
1630934646433,21811,220663,140582
1630934646443,21809,220670,140583
1630934646453,21807,220682,140584
1630934646463,21814,220667,140567
1630934646473,21816,220687,140564
1630934646483,21840,220672,140560
1630934646493,21832,220661,140587
1630934646503,21830,220676,140568
1630934646513,21829,220642,140521
1630934646523,21826,220640,140514
1630934646533,21819,220651,140499
1630934646543,21820,220662,140469
1630934646553,21819,220650,140432
1630934646563,21809,220624,140421
1630934646573,21815,220598,140402
1630934646583,21801,220550,140401
1630934646593,21795,220510,140380
1630934646603,21786,220502,140363
1630934646613,21775,220468,140329
1630934646623,21759,220443,140324
1630934646633,21746,220409,140283
1630934646643,21726,220366,140231
1630934646653,21712,220361,140229
1630934646663,21700,220283,140185
1630934646673,21691,220263,140169
1630934646683,21683,220281,140165
1630934646693,21682,220228,140155
1630934646703,21670,220223,140155
1630934646713,21677,220253,140156
1630934646723,21662,220239,140135
1630934646733,21656,220217,140120
1630934646743,21642,220211,140094
1630934646753,21640,220140,140072
1630934646763,21631,220144,140041
1630934646773,21621,220097,140021
1630934646783,21623,220084,140011
1630934646793,21614,220078,140001
1630934646803,21605,220095,140001
1630934646813,21612,220051,139999
1630934646823,21617,220087,139996
1630934646833,21622,220088,140023
1630934646843,21629,220152,140046
1630934646853,21634,220134,140087
1630934646863,21640,220175,140108
1630934646873,21645,220180,140098
1630934646883,21661,220211,140108
1630934646893,21655,220218,140123
1630934646903,21666,220183,140135
1630934646913,21664,220228,140145
1630934646923,21660,220211,140164
1630934646933,21674,220244,140148
1630934646943,21678,220244,140182
1630934646953,21687,220276,140184
1630934646963,21689,220295,140200
1630934646973,21688,220289,140202
1630934646983,21693,220310,140188
1630934646993,21697,220305,140193
1630934647003,21696,220269,140171
1630934647013,21700,220280,140157
1630934647023,21693,220284,140177
1630934647033,21692,220292,140157
1630934647043,21697,220260,140168
1630934647053,21694,220288,140130
1630934647063,21706,220271,140147
1630934647073,21710,220292,140148
1630934647083,21706,220296,140163
1630934647093,21716,220283,140152
1630934647103,21715,220294,140161
1630934647113,21722,220305,140160
1630934647123,21720,220303,140153
1630934647133,21725,220292,140169
1630934647143,21726,220310,140176
1630934647153,21721,220284,140147
1630934647163,21719,220253,140169
1630934647173,21707,220236,140153
1630934647183,21703,220222,140149
1630934647193,21691,220207,140162
1630934647203,21687,220217,140143
1630934647213,21679,220194,140153
1630934647223,21686,220176,140178
1630934647233,21672,220179,140147
1630934647243,21668,220174,140167
1630934647253,21667,220176,140169
1630934647263,21663,220137,140193
1630934647273,21662,220189,140205
1630934647283,21663,220172,140209
1630934647293,21658,220186,140222
1630934647303,21663,220189,140252
1630934647313,21664,220213,140254
1630934647323,21660,220209,140270
1630934647333,21659,220207,140294
1630934647343,21661,220240,140305
1630934647353,21672,220240,140322
1630934647363,21658,220285,140344
1630934647373,21672,220250,140347
1630934647383,21672,220256,140352
1630934647393,21660,220263,140356
1630934647403,21669,220275,140347
1630934647413,21670,220264,140353
1630934647423,21670,220301,140365
1630934647433,21672,220310,140383
1630934647443,21674,220285,140402
1630934647453,21679,220304,140413
1630934647463,21677,220320,140416
1630934647473,21680,220321,140404
1630934647483,21678,220325,140412
1630934647493,21684,220329,140414
1630934647503,21684,220315,140421
1630934647513,21689,220317,140409
1630934647523,21686,220375,140426
1630934647533,21693,220371,140408
1630934647543,21691,220359,140444
1630934647553,21698,220379,140411
1630934647563,21696,220385,140417
1630934647573,21696,220381,140430
1630934647583,21702,220364,140419
1630934647593,21703,220363,140450
1630934647603,21708,220380,140442
1630934647613,21718,220427,140459
1630934647623,21724,220382,140457
1630934647633,21722,220417,140461
1630934647643,21726,220410,140461
1630934647653,21726,220416,140452
1630934647663,21724,220406,140449
1630934647673,21727,220449,140440
1630934647683,21746,220448,140465
1630934647693,21747,220484,140479
1630934647703,21743,220467,140472
1630934647713,21751,220500,140472
1630934647723,21755,220477,140468
1630934647733,21764,220464,140509
1630934647743,21759,220501,140481
1630934647753,21768,220448,140484
1630934647763,21765,220486,140474
1630934647773,21762,220498,140484
1630934647783,21758,220447,140466
1630934647793,21757,220481,140468
1630934647803,21759,220461,140511
1630934647813,21780,220513,140607
1630934647823,21797,220602,140712
1630934647833,21810,220711,140800
1630934647843,21828,220715,140871
1630934647853,21814,220756,140866
1630934647863,21815,220762,140893
1630934647873,21807,220755,140873
1630934647883,21797,220719,140855
1630934647893,21790,220760,140860
1630934647903,21784,220708,140834
1630934647913,21774,220719,140812
1630934647923,21767,220659,140804
1630934647933,21751,220633,140787
1630934647943,21742,220632,140732
1630934647953,21730,220610,140723
1630934647963,21721,220583,140676
1630934647973,21718,220559,140677
1630934647983,21722,220580,140678
1630934647993,21716,220547,140650
1630934648003,21704,220535,140650
1630934648013,21713,220482,140625
1630934648023,21711,220516,140601
1630934648033,21702,220481,140595
1630934648043,21701,220510,140595
1630934648053,21701,220472,140592
1630934648063,21697,220501,140593
1630934648073,21700,220476,140565
1630934648083,21697,220460,140564
1630934648093,21692,220486,140550
1630934648103,21688,220443,140534
1630934648113,21694,220455,140524
1630934648123,21686,220402,140501
1630934648133,21688,220427,140525
1630934648143,21691,220406,140531
1630934648153,21688,220436,140515
1630934648163,21694,220465,140496
1630934648173,21682,220425,140509
1630934648183,21688,220453,140492
1630934648193,21691,220455,140495
1630934648203,21700,220441,140487
1630934648213,21700,220435,140489
1630934648223,21702,220464,140520
1630934648233,21704,220484,140495
1630934648243,21709,220497,140491
1630934648253,21715,220487,140483
1630934648263,21716,220491,140500
1630934648273,21723,220484,140506
1630934648283,21722,220461,140512
1630934648293,21732,220518,140530
1630934648303,21732,220500,140514
1630934648313,21740,220531,140522
1630934648323,21754,220506,140523
1630934648333,21750,220511,140530
1630934648343,21742,220507,140503
1630934648353,21742,220502,140497
1630934648363,21759,220525,140501
1630934648373,21752,220497,140509
1630934648383,21751,220531,140519
1630934648393,21749,220508,140469
1630934648403,21737,220450,140451
1630934648413,21726,220439,140454
1630934648423,21717,220419,140436
1630934648433,21711,220389,140419
1630934648443,21704,220425,140404
1630934648453,21690,220352,140407
1630934648463,21681,220324,140395
1630934648473,21674,220295,140385
1630934648483,21675,220318,140358
1630934648493,21667,220286,140369
1630934648503,21641,220271,140352
1630934648513,21649,220243,140358
1630934648523,21639,220256,140331
1630934648533,21639,220231,140335
1630934648543,21625,220194,140317
1630934648553,21618,220221,140295
1630934648563,21607,220165,140287
1630934648573,21604,220170,140270
1630934648583,21593,220135,140264
1630934648593,21597,220148,140260
1630934648603,21591,220129,140258
1630934648613,21592,220127,140229
1630934648623,21588,220141,140232
1630934648633,21586,220119,140213
1630934648643,21584,220103,140219
1630934648653,21581,220148,140207
1630934648663,21594,220144,140197
1630934648673,21574,220092,140199
1630934648683,21581,220112,140197
1630934648693,21589,220110,140197
1630934648703,21570,220068,140164
1630934648713,21571,220063,140154
1630934648723,21567,220097,140174
1630934648733,21570,220078,140159
1630934648743,21571,220062,140153
1630934648753,21564,220065,140141
1630934648763,21563,220047,140121
1630934648773,21564,220059,140122
1630934648783,21566,220037,140117
1630934648793,21567,220078,140128
1630934648803,21572,220094,140127
1630934648813,21564,220083,140115
1630934648823,21572,220066,140104
1630934648833,21563,220082,140093
1630934648843,21572,220075,140102
1630934648853,21565,220072,140115
1630934648863,21577,220067,140087
1630934648873,21583,220059,140094
1630934648883,21585,220094,140088
1630934648893,21584,220092,140089
1630934648903,21585,220089,140087
1630934648913,21589,220074,140106
1630934648923,21593,220106,140089
1630934648933,21592,220095,140081
1630934648943,21599,220138,140088
1630934648953,21605,220122,140093
1630934648963,21601,220147,140084
1630934648973,21611,220117,140099
1630934648983,21605,220139,140082
1630934648993,21613,220128,140093
1630934649003,21611,220148,140066
1630934649013,21609,220122,140021
1630934649023,21596,220072,140037
1630934649033,21594,220066,140020
1630934649043,21579,220045,140002
1630934649053,21570,220027,140018
1630934649063,21563,220002,140019
1630934649073,21560,219998,139992
1630934649083,21550,219985,139996
1630934649093,21542,219935,139981
1630934649103,21535,219948,139981
1630934649113,21529,219917,139953
1630934649123,21526,219904,139956
1630934649133,21517,219920,139947
1630934649143,21517,219882,139952
1630934649153,21520,219909,139934
1630934649163,21497,219885,139931
1630934649173,21502,219874,139932
1630934649183,21499,219879,139915
1630934649193,21494,219870,139925
1630934649203,21494,219851,139916
1630934649213,21488,219859,139918
1630934649223,21490,219862,139914
1630934649233,21485,219865,139915
1630934649243,21486,219864,139896
1630934649253,21485,219862,139905
1630934649263,21482,219865,139904
1630934649273,21483,219876,139921
1630934649283,21491,219861,139907
1630934649293,21485,219873,139930
1630934649303,21497,219858,139889
1630934649313,21479,219832,139877
1630934649323,21477,219829,139876
1630934649333,21486,219882,139862
1630934649343,21486,219825,139859
1630934649353,21474,219838,139858
1630934649363,21478,219840,139827
1630934649373,21475,219837,139857
1630934649383,21478,219820,139842
1630934649393,21478,219846,139851
1630934649403,21479,219848,139863
1630934649413,21476,219830,139835
1630934649423,21479,219827,139831
1630934649433,21478,219841,139838
1630934649443,21483,219848,139826
1630934649453,21482,219859,139825
1630934649463,21497,219831,139823
1630934649473,21481,219851,139822
1630934649483,21496,219843,139822
1630934649493,21494,219858,139824
1630934649503,21494,219888,139798
1630934649513,21496,219858,139810
1630934649523,21500,219873,139806
1630934649533,21502,219880,139811
1630934649543,21509,219863,139829
1630934649553,21510,219892,139821
1630934649563,21509,219869,139807
1630934649573,21514,219907,139795
1630934649583,21515,219959,139820
1630934649593,21523,219926,139812
1630934649603,21527,219931,139803
1630934649613,21531,219903,139799
1630934649623,21526,219918,139787
1630934649633,21509,219867,139755
1630934649643,21500,219855,139737
1630934649653,21498,219825,139743
1630934649663,21488,219804,139731
1630934649673,21477,219791,139722
1630934649683,21465,219748,139725
1630934649693,21461,219766,139702
1630934649703,21450,219729,139695
1630934649713,21448,219728,139679
1630934649723,21434,219703,139677
1630934649733,21427,219683,139671
1630934649743,21424,219706,139648
1630934649753,21417,219678,139660
1630934649763,21412,219679,139626
1630934649773,21409,219685,139638
1630934649783,21407,219663,139623
1630934649793,21394,219622,139638
1630934649803,21388,219628,139617
1630934649813,21391,219621,139609
1630934649823,21386,219646,139600
1630934649833,21384,219651,139605
1630934649843,21390,219635,139620
1630934649853,21385,219643,139615
1630934649863,21382,219621,139590
1630934649873,21380,219616,139590
1630934649883,21377,219586,139595
1630934649893,21380,219634,139593
1630934649903,21383,219619,139614
1630934649913,21386,219616,139601
1630934649923,21385,219602,139574
1630934649933,21381,219627,139579
1630934649943,21384,219619,139577
1630934649953,21378,219600,139550
1630934649963,21384,219631,139583
1630934649973,21386,219621,139559
1630934649983,21378,219619,139564
1630934649993,21379,219587,139568
1630934650003,21383,219621,139554
1630934650013,21385,219631,139548
1630934650023,21382,219635,139537
1630934650033,21383,219603,139555
1630934650043,21384,219642,139539
1630934650053,21385,219605,139546
1630934650063,21393,219629,139550
1630934650073,21391,219645,139542
1630934650083,21399,219621,139535
1630934650093,21395,219607,139533
1630934650103,21395,219643,139534
1630934650113,21406,219625,139546
1630934650123,21401,219632,139519
1630934650133,21406,219668,139553
1630934650143,21409,219673,139527
1630934650153,21411,219642,139522
1630934650163,21410,219647,139523
1630934650173,21409,219660,139525
1630934650183,21407,219623,139516
1630934650193,21411,219650,139510
1630934650203,21415,219677,139499
1630934650213,21416,219662,139524
1630934650223,21424,219675,139503
1630934650233,21420,219697,139493
1630934650243,21424,219687,139507
1630934650253,21426,219708,139504
1630934650263,21427,219694,139495
1630934650273,21419,219674,139488
1630934650283,21420,219623,139451
1630934650293,21409,219628,139419
1630934650303,21398,219617,139410
1630934650313,21389,219560,139404
1630934650323,21384,219559,139406
1630934650333,21377,219537,139390
1630934650343,21367,219512,139369
1630934650353,21354,219482,139355
1630934650363,21353,219472,139340
1630934650373,21342,219489,139343
1630934650383,21334,219462,139329
1630934650393,21327,219416,139339
1630934650403,21318,219451,139315
1630934650413,21314,219435,139330
1630934650423,21304,219408,139311
1630934650433,21296,219398,139296
1630934650443,21279,219371,139276
1630934650453,21286,219357,139271
1630934650463,21267,219336,139257
1630934650473,21282,219345,139264
1630934650483,21268,219324,139247
1630934650493,21267,219353,139256
1630934650503,21271,219346,139276
1630934650513,21268,219350,139248
1630934650523,21271,219381,139232
1630934650533,21269,219352,139238
1630934650543,21270,219364,139244
1630934650553,21269,219355,139252
1630934650563,21266,219345,139272
1630934650573,21269,219340,139251
1630934650583,21265,219319,139238
1630934650593,21271,219346,139259
1630934650603,21263,219374,139235
1630934650613,21269,219357,139230
1630934650623,21261,219343,139221
1630934650633,21277,219325,139226
1630934650643,21273,219350,139245
1630934650653,21268,219371,139247
1630934650663,21277,219382,139241
1630934650673,21277,219376,139246
1630934650683,21280,219349,139255
1630934650693,21286,219387,139252
1630934650703,21283,219410,139237
1630934650713,21286,219347,139240
1630934650723,21288,219378,139251
1630934650733,21290,219400,139243
1630934650743,21294,219384,139229
1630934650753,21305,219447,139252
1630934650763,21307,219400,139245
1630934650773,21296,219425,139266
1630934650783,21304,219420,139228
1630934650793,21315,219436,139248
1630934650803,21316,219449,139249
1630934650813,21319,219435,139259
1630934650823,21323,219484,139257
1630934650833,21325,219453,139258
1630934650843,21326,219444,139228
1630934650853,21326,219435,139227
1630934650863,21326,219445,139256
1630934650873,21334,219459,139238
1630934650883,21329,219460,139250
1630934650893,21341,219480,139235
1630934650903,21339,219490,139242
1630934650913,21345,219509,139254
1630934650923,21345,219474,139248
1630934650933,21347,219479,139266
1630934650943,21349,219454,139235
1630934650953,21346,219522,139247
1630934650963,21359,219516,139246
1630934650973,21366,219515,139236
1630934650983,21366,219516,139243
1630934650993,21367,219519,139228
1630934651003,21363,219500,139225
1630934651013,21355,219468,139183
1630934651023,21346,219476,139185
1630934651033,21337,219423,139171
1630934651043,21329,219430,139156
1630934651053,21323,219372,139164
1630934651063,21313,219375,139159
1630934651073,21305,219347,139131
1630934651083,21296,219321,139113
1630934651093,21294,219315,139094
1630934651103,21282,219322,139093
1630934651113,21288,219310,139107
1630934651123,21270,219302,139092
1630934651133,21267,219300,139105
1630934651143,21266,219303,139107
1630934651153,21260,219292,139104
1630934651163,21254,219274,139086
1630934651173,21251,219256,139083
1630934651183,21242,219250,139083
1630934651193,21240,219269,139074
1630934651203,21237,219265,139089
1630934651213,21237,219250,139082
1630934651223,21240,219247,139072
1630934651233,21245,219235,139083
1630934651243,21241,219258,139070
1630934651253,21246,219255,139042
1630934651263,21245,219223,139075
1630934651273,21243,219246,139065
1630934651283,21248,219229,139082
1630934651293,21240,219271,139061
1630934651303,21234,219289,139082
1630934651313,21238,219271,139073
1630934651323,21238,219240,139065
1630934651333,21237,219244,139056
1630934651343,21243,219246,139064
1630934651353,21240,219270,139059
1630934651363,21241,219253,139055
1630934651373,21246,219278,139057
1630934651383,21242,219273,139035
1630934651393,21250,219254,139065
1630934651403,21244,219258,139077
1630934651413,21251,219268,139049
1630934651423,21258,219264,139076
1630934651433,21252,219276,139090
1630934651443,21268,219294,139075
1630934651453,21266,219298,139071
1630934651463,21266,219274,139074
1630934651473,21271,219296,139066
1630934651483,21272,219288,139061
1630934651493,21276,219323,139072
1630934651503,21279,219336,139084
1630934651513,21284,219337,139079
1630934651523,21288,219344,139088
1630934651533,21294,219365,139098
1630934651543,21296,219342,139091
1630934651553,21306,219338,139087
1630934651563,21312,219355,139095
1630934651573,21314,219381,139127
1630934651583,21312,219379,139119
1630934651593,21326,219379,139132
1630934651603,21321,219379,139106
1630934651613,21327,219395,139124
1630934651623,21330,219398,139117
1630934651633,21335,219388,139135
1630934651643,21340,219436,139122
1630934651653,21340,219439,139125
1630934651663,21347,219469,139147
1630934651673,21353,219435,139158
1630934651683,21364,219467,139140
1630934651693,21365,219482,139156
1630934651703,21367,219503,139171
1630934651713,21374,219496,139183
1630934651723,21375,219518,139183
1630934651733,21375,219500,139178
1630934651743,21368,219519,139171
1630934651753,21368,219480,139158
1630934651763,21367,219446,139151
1630934651773,21354,219408,139124
1630934651783,21351,219411,139128
1630934651793,21345,219373,139128
1630934651803,21335,219371,139119
1630934651813,21330,219366,139117
1630934651823,21327,219367,139107
1630934651833,21317,219386,139105
1630934651843,21320,219360,139090
1630934651853,21311,219345,139090
1630934651863,21304,219329,139087
1630934651873,21304,219359,139092
1630934651883,21294,219306,139093
1630934651893,21287,219308,139068
1630934651903,21290,219305,139085
1630934651913,21296,219296,139082
1630934651923,21281,219271,139073
1630934651933,21284,219274,139055
1630934651943,21277,219304,139072
1630934651953,21278,219297,139068
1630934651963,21278,219300,139078
1630934651973,21280,219270,139093
1630934651983,21281,219289,139072
1630934651993,21286,219311,139091
1630934652003,21286,219316,139085
1630934652013,21288,219347,139087
1630934652023,21289,219328,139109
1630934652033,21293,219330,139127
1630934652043,21291,219328,139127
1630934652053,21307,219327,139162
1630934652063,21321,219385,139182
1630934652073,21353,219442,139280
1630934652083,21374,219497,139368
1630934652093,21399,219608,139484
1630934652103,21458,219708,139622
1630934652113,21509,219827,139829
1630934652123,21559,219953,139969
1630934652133,21608,220079,140118
1630934652143,21659,220185,140258
1630934652153,21702,220293,140402
1630934652163,21737,220353,140508
1630934652173,21770,220421,140601
1630934652183,21801,220452,140671
1630934652193,21821,220553,140730
1630934652203,21838,220546,140787
1630934652213,21859,220631,140823
1630934652223,21865,220668,140847
1630934652233,21877,220701,140867
1630934652243,21884,220642,140917
1630934652253,21896,220703,140938
1630934652263,21903,220685,140936
1630934652273,21912,220712,140952
1630934652283,21921,220734,140956
1630934652293,21919,220746,140985
1630934652303,21923,220731,140984
1630934652313,21934,220723,140965
1630934652323,21940,220759,140974
1630934652333,21943,220766,140978
1630934652343,21942,220775,140980
1630934652353,21946,220771,140989
1630934652363,21942,220794,140987
1630934652373,21959,220772,140983
1630934652383,21941,220771,140964
1630934652393,21957,220794,140972
1630934652403,21944,220782,140967
1630934652413,21950,220772,140925
1630934652423,21937,220762,140903
1630934652433,21931,220706,140875
1630934652443,21927,220711,140849
1630934652453,21913,220683,140844
1630934652463,21898,220669,140832
1630934652473,21892,220650,140817
1630934652483,21872,220637,140811
1630934652493,21873,220610,140801
1630934652503,21860,220571,140778
1630934652513,21854,220542,140765
1630934652523,21844,220577,140750
1630934652533,21845,220575,140728
1630934652543,21821,220550,140704
1630934652553,21821,220501,140714
1630934652563,21812,220507,140700
1630934652573,21801,220476,140660
1630934652583,21799,220494,140655
1630934652593,21786,220466,140651
1630934652603,21783,220471,140655
1630934652613,21781,220426,140640
1630934652623,21773,220452,140646
1630934652633,21773,220425,140645
1630934652643,21769,220438,140646
1630934652653,21770,220440,140643
1630934652663,21772,220425,140630
1630934652673,21767,220428,140626
1630934652683,21762,220417,140600
1630934652693,21765,220456,140598
1630934652703,21767,220448,140613
1630934652713,21757,220438,140591
1630934652723,21764,220403,140593
1630934652733,21759,220410,140594
1630934652743,21743,220392,140608
1630934652753,21748,220433,140561
1630934652763,21751,220407,140560
1630934652773,21747,220409,140556
1630934652783,21745,220432,140552
1630934652793,21747,220390,140548
1630934652803,21746,220412,140536
1630934652813,21746,220406,140539
1630934652823,21746,220419,140539
1630934652833,21742,220403,140519
1630934652843,21741,220447,140527
1630934652853,21748,220409,140536
1630934652863,21759,220456,140518
1630934652873,21749,220422,140522
1630934652883,21754,220450,140540
1630934652893,21757,220467,140507
1630934652903,21748,220444,140490
1630934652913,21749,220443,140504
1630934652923,21759,220431,140486
1630934652933,21753,220476,140492
1630934652943,21762,220479,140475
1630934652953,21753,220446,140492
1630934652963,21752,220466,140474
1630934652973,21754,220475,140467
1630934652983,21760,220429,140471
1630934652993,21765,220464,140464
1630934653003,21765,220475,140454
1630934653013,21767,220456,140452
1630934653023,21769,220479,140474
1630934653033,21775,220459,140449
1630934653043,21778,220468,140463
1630934653053,21781,220481,140476
1630934653063,21788,220481,140463
1630934653073,21782,220528,140489
1630934653083,21785,220552,140463
1630934653093,21790,220521,140474
1630934653103,21795,220522,140466
1630934653113,21798,220571,140464
1630934653123,21790,220506,140457
1630934653133,21783,220521,140455
1630934653143,21789,220523,140420
1630934653153,21777,220473,140408
1630934653163,21769,220453,140416
1630934653173,21760,220427,140404
1630934653183,21748,220430,140372
1630934653193,21738,220388,140378
1630934653203,21733,220397,140366
1630934653213,21731,220364,140361
1630934653223,21718,220355,140356
1630934653233,21706,220349,140347
1630934653243,21702,220319,140364
1630934653253,21698,220324,140334
1630934653263,21694,220288,140328
1630934653273,21682,220290,140346
1630934653283,21677,220290,140323
1630934653293,21672,220256,140322
1630934653303,21662,220284,140312
1630934653313,21659,220259,140309
1630934653323,21651,220259,140295
1630934653333,21649,220275,140295
1630934653343,21648,220255,140290
1630934653353,21652,220253,140297
1630934653363,21642,220242,140302
1630934653373,21643,220267,140282
1630934653383,21640,220228,140271
1630934653393,21644,220241,140279
1630934653403,21639,220238,140291
1630934653413,21643,220263,140283
1630934653423,21645,220296,140285
1630934653433,21646,220301,140293
1630934653443,21647,220249,140279
1630934653453,21644,220256,140276
1630934653463,21646,220246,140282
1630934653473,21648,220281,140278
1630934653483,21644,220278,140276
1630934653493,21649,220283,140302
1630934653503,21654,220272,140287
1630934653513,21656,220269,140284
1630934653523,21648,220272,140279
1630934653533,21656,220290,140275
1630934653543,21650,220272,140295
1630934653553,21661,220314,140287
1630934653563,21666,220285,140308
1630934653573,21674,220304,140295
1630934653583,21671,220310,140313
1630934653593,21676,220329,140314
1630934653603,21675,220360,140306
1630934653613,21677,220336,140304
1630934653623,21672,220328,140298
1630934653633,21674,220341,140286
1630934653643,21677,220332,140280
1630934653653,21684,220351,140295
1630934653663,21691,220352,140303
1630934653673,21700,220368,140314
1630934653683,21699,220393,140302
1630934653693,21718,220396,140318
1630934653703,21715,220383,140325
1630934653713,21719,220390,140341
1630934653723,21725,220419,140342
1630934653733,21730,220451,140358
1630934653743,21731,220466,140365
1630934653753,21735,220452,140369
1630934653763,21747,220474,140380
1630934653773,21745,220485,140384
1630934653783,21748,220493,140388
1630934653793,21755,220503,140389
1630934653803,21762,220497,140397
1630934653813,21763,220511,140408
1630934653823,21769,220532,140393
1630934653833,21780,220547,140402
1630934653843,21773,220533,140376
1630934653853,21774,220547,140421
1630934653863,21788,220553,140405
1630934653873,21774,220587,140407
1630934653883,21789,220597,140411
1630934653893,21793,220585,140404
1630934653903,21790,220594,140375
1630934653913,21785,220539,140366
1630934653923,21778,220584,140351
1630934653933,21780,220481,140328
1630934653943,21774,220538,140301
1630934653953,21765,220482,140302
1630934653963,21759,220488,140296
1630934653973,21749,220431,140271
1630934653983,21740,220427,140270
1630934653993,21732,220431,140245
1630934654003,21719,220385,140249
1630934654013,21719,220379,140235
1630934654023,21717,220365,140238
1630934654033,21704,220404,140241
1630934654043,21696,220381,140268
1630934654053,21698,220377,140252
1630934654063,21696,220367,140231
1630934654073,21684,220347,140239
1630934654083,21685,220326,140234
1630934654093,21675,220332,140216
1630934654103,21669,220326,140250
1630934654113,21672,220357,140242
1630934654123,21669,220342,140251
1630934654133,21673,220353,140282
1630934654143,21670,220349,140282
1630934654153,21675,220367,140291
1630934654163,21675,220358,140282
1630934654173,21679,220363,140284
1630934654183,21666,220379,140296
1630934654193,21674,220356,140279
1630934654203,21670,220360,140290
1630934654213,21676,220358,140275
1630934654223,21679,220377,140270
1630934654233,21676,220361,140290
1630934654243,21680,220385,140316
1630934654253,21684,220366,140308
1630934654263,21686,220370,140303
1630934654273,21686,220371,140302
1630934654283,21686,220372,140328
1630934654293,21687,220384,140337
1630934654303,21697,220432,140337
1630934654313,21700,220443,140346
1630934654323,21709,220426,140362
1630934654333,21706,220425,140346
1630934654343,21713,220449,140353
1630934654353,21712,220418,140374
1630934654363,21698,220439,140356
1630934654373,21703,220434,140355
1630934654383,21704,220472,140368
1630934654393,21704,220459,140336
1630934654403,21706,220471,140351
1630934654413,21709,220473,140356
1630934654423,21714,220497,140353
1630934654433,21718,220501,140353
1630934654443,21723,220496,140360
1630934654453,21718,220509,140362
1630934654463,21721,220537,140386
1630934654473,21727,220529,140357
1630934654483,21735,220514,140384
1630934654493,21743,220521,140389
1630934654503,21745,220522,140388
1630934654513,21764,220570,140391
1630934654523,21757,220613,140414
1630934654533,21764,220555,140417
1630934654543,21765,220582,140408
1630934654553,21765,220550,140418
1630934654563,21769,220613,140412
1630934654573,21774,220560,140442
1630934654583,21774,220633,140436
1630934654593,21782,220650,140460
1630934654603,21790,220694,140474
1630934654613,21796,220689,140499
1630934654623,21801,220708,140500
1630934654633,21807,220733,140526
1630934654643,21812,220695,140509
1630934654653,21808,220766,140510
1630934654663,21815,220765,140533
1630934654673,21819,220745,140540
1630934654683,21819,220802,140529
1630934654693,21833,220762,140526
1630934654703,21834,220777,140531
1630934654713,21836,220794,140535
1630934654723,21837,220793,140537
1630934654733,21829,220760,140523
1630934654743,21828,220784,140525
1630934654753,21819,220741,140520
1630934654763,21815,220751,140520
1630934654773,21811,220708,140508
1630934654783,21801,220717,140509
1630934654793,21796,220720,140498
1630934654803,21787,220704,140472
1630934654813,21777,220659,140480
1630934654823,21777,220637,140456
1630934654833,21767,220638,140441
1630934654843,21771,220651,140458
1630934654853,21761,220643,140451
1630934654863,21753,220620,140445
1630934654873,21745,220601,140453
1630934654883,21749,220638,140465
1630934654893,21741,220632,140443
1630934654903,21733,220638,140460
1630934654913,21734,220665,140444
1630934654923,21733,220629,140454
1630934654933,21727,220615,140470
1630934654943,21732,220647,140450
1630934654953,21731,220635,140448
1630934654963,21732,220620,140443
1630934654973,21722,220626,140463
1630934654983,21722,220626,140465
1630934654993,21738,220612,140434
1630934655003,21729,220617,140460
1630934655013,21724,220636,140453
1630934655023,21730,220627,140443
1630934655033,21723,220618,140441
1630934655043,21728,220596,140424
1630934655053,21723,220626,140434
1630934655063,21720,220604,140433
1630934655073,21723,220606,140415
1630934655083,21716,220637,140429
1630934655093,21727,220619,140415
1630934655103,21723,220643,140424
1630934655113,21724,220593,140438
1630934655123,21732,220664,140412
1630934655133,21726,220634,140418
1630934655143,21730,220629,140422
1630934655153,21725,220631,140414
1630934655163,21729,220657,140431
1630934655173,21740,220657,140446
1630934655183,21747,220666,140424
1630934655193,21748,220702,140453
1630934655203,21752,220683,140440
1630934655213,21754,220683,140434
1630934655223,21759,220655,140455
1630934655233,21762,220704,140446
1630934655243,21763,220726,140464
1630934655253,21769,220715,140464
1630934655263,21774,220704,140455
1630934655273,21777,220714,140489
1630934655283,21778,220726,140481
1630934655293,21781,220746,140484
1630934655303,21787,220788,140491
1630934655313,21790,220755,140480
1630934655323,21800,220794,140512
1630934655333,21800,220831,140512
1630934655343,21811,220814,140523
1630934655353,21811,220829,140507
1630934655363,21812,220808,140517
1630934655373,21819,220810,140506
1630934655383,21819,220806,140507
1630934655393,21821,220835,140498
1630934655403,21827,220840,140512
1630934655413,21826,220825,140518
1630934655423,21838,220852,140511
1630934655433,21838,220850,140514
1630934655443,21846,220849,140510
1630934655453,21847,220881,140527
1630934655463,21853,220927,140514
1630934655473,21852,220883,140542
1630934655483,21863,220905,140546
1630934655493,21865,220928,140552
1630934655503,21863,220937,140540
1630934655513,21869,220955,140540
1630934655523,21869,220945,140539
1630934655533,21864,220936,140529
1630934655543,21865,220864,140519
1630934655553,21857,220881,140491
1630934655563,21856,220885,140493
1630934655573,21842,220886,140479
1630934655583,21839,220854,140489
1630934655593,21838,220824,140479
1630934655603,21830,220824,140476
1630934655613,21827,220792,140464
1630934655623,21821,220798,140457
1630934655633,21804,220767,140439
1630934655643,21798,220758,140453
1630934655653,21797,220741,140428
1630934655663,21803,220750,140457
1630934655673,21793,220777,140440
1630934655683,21793,220733,140434
1630934655693,21783,220747,140442
1630934655703,21780,220730,140433
1630934655713,21780,220756,140419
1630934655723,21776,220732,140425
1630934655733,21769,220696,140411
1630934655743,21769,220682,140420
1630934655753,21764,220721,140422
1630934655763,21763,220712,140423
1630934655773,21769,220743,140435
1630934655783,21764,220716,140414
1630934655793,21764,220738,140419
1630934655803,21775,220682,140405
1630934655813,21766,220732,140420
1630934655823,21766,220709,140411
1630934655833,21766,220707,140411
1630934655843,21770,220713,140422
1630934655853,21769,220711,140416
1630934655863,21767,220713,140422
1630934655873,21770,220740,140429
1630934655883,21767,220751,140419
1630934655893,21772,220768,140449
1630934655903,21771,220716,140417
1630934655913,21772,220723,140423
1630934655923,21771,220734,140413
1630934655933,21773,220734,140439
1630934655943,21776,220740,140400
1630934655953,21777,220719,140415
1630934655963,21781,220746,140432
1630934655973,21780,220748,140421
1630934655983,21791,220729,140427
1630934655993,21785,220762,140410
1630934656003,21787,220767,140402
1630934656013,21791,220757,140417
1630934656023,21790,220783,140405
1630934656033,21794,220762,140413
1630934656043,21789,220783,140416
1630934656053,21796,220801,140419
1630934656063,21801,220796,140399
1630934656073,21803,220794,140410
1630934656083,21804,220815,140398
1630934656093,21803,220776,140416
1630934656103,21811,220771,140416
1630934656113,21807,220826,140399
1630934656123,21823,220819,140410
1630934656133,21818,220819,140428
1630934656143,21830,220802,140422
1630934656153,21826,220803,140414
1630934656163,21833,220812,140415
1630934656173,21835,220871,140423
1630934656183,21838,220840,140425
1630934656193,21840,220859,140418
1630934656203,21846,220850,140416
1630934656213,21852,220846,140402
1630934656223,21854,220865,140429
1630934656233,21858,220866,140415
1630934656243,21861,220884,140430
1630934656253,21872,220895,140425
1630934656263,21866,220914,140426
1630934656273,21878,220905,140421
1630934656283,21879,220871,140437
1630934656293,21874,220896,140416
1630934656303,21885,220913,140435
1630934656313,21891,220946,140437
1630934656323,21900,220942,140453
1630934656333,21897,220922,140450
1630934656343,21904,220910,140458
1630934656353,21905,220936,140465
1630934656363,21911,220934,140464
1630934656373,21910,220920,140455
1630934656383,21903,220928,140419
1630934656393,21903,220913,140415
1630934656403,21892,220888,140404
1630934656413,21892,220860,140411
1630934656423,21879,220838,140384
1630934656433,21884,220851,140388
1630934656443,21874,220808,140392
1630934656453,21863,220831,140376
1630934656463,21862,220797,140394
1630934656473,21845,220821,140376
1630934656483,21847,220818,140374
1630934656493,21855,220740,140385
1630934656503,21845,220773,140375
1630934656513,21839,220767,140383
1630934656523,21840,220740,140369
1630934656533,21839,220770,140377
1630934656543,21831,220794,140385
1630934656553,21831,220765,140381
1630934656563,21828,220747,140388
1630934656573,21828,220770,140368
1630934656583,21823,220739,140382
1630934656593,21827,220767,140398
1630934656603,21832,220796,140382
1630934656613,21821,220797,140403
1630934656623,21835,220775,140390
1630934656633,21818,220784,140412
1630934656643,21830,220792,140398
1630934656653,21831,220797,140407
1630934656663,21826,220781,140407
1630934656673,21829,220771,140412
1630934656683,21828,220807,140393
1630934656693,21830,220804,140418
1630934656703,21828,220814,140406
1630934656713,21826,220788,140399
1630934656723,21825,220825,140389
1630934656733,21828,220793,140410
1630934656743,21828,220801,140439
1630934656753,21829,220832,140405
1630934656763,21828,220818,140405
1630934656773,21832,220849,140417
1630934656783,21844,220794,140414
1630934656793,21844,220818,140402
1630934656803,21836,220883,140417
1630934656813,21842,220819,140407
1630934656823,21844,220826,140426
1630934656833,21847,220867,140449
1630934656843,21853,220862,140444
1630934656853,21849,220880,140442
1630934656863,21854,220869,140435
1630934656873,21861,220896,140454
1630934656883,21870,220858,140455
1630934656893,21869,220914,140464
1630934656903,21867,220894,140442
1630934656913,21874,220888,140420
1630934656923,21873,220884,140464
1630934656933,21873,220890,140438
1630934656943,21878,220898,140454
1630934656953,21883,220918,140465
1630934656963,21890,220945,140473
1630934656973,21892,220905,140508
1630934656983,21897,220962,140471
1630934656993,21901,220956,140483
1630934657003,21908,220955,140511
1630934657013,21915,220937,140512
1630934657023,21922,220965,140519
1630934657033,21925,221000,140546
1630934657043,21933,221008,140542
1630934657053,21933,221018,140556
1630934657063,21940,221048,140561
1630934657073,21946,221025,140577
1630934657083,21952,221090,140565
1630934657093,21954,221092,140607
1630934657103,21957,221101,140603
1630934657113,21969,221075,140598
1630934657123,21967,221098,140612
1630934657133,21975,221146,140617
1630934657143,21978,221151,140628
1630934657153,21982,221143,140619
1630934657163,21985,221186,140647
1630934657173,21996,221160,140669
1630934657183,21993,221185,140656
1630934657193,22002,221184,140635
1630934657203,21994,221187,140631
1630934657213,21992,221185,140613
1630934657223,21980,221152,140591
1630934657233,21977,221130,140595
1630934657243,21963,221115,140574
1630934657253,21964,221077,140570
1630934657263,21953,221065,140564
1630934657273,21952,221054,140541
1630934657283,21948,221020,140536
1630934657293,21929,221016,140545
1630934657303,21925,221014,140535
1630934657313,21919,221017,140513
1630934657323,21909,220989,140503
1630934657333,21906,220983,140499
1630934657343,21897,220980,140500
1630934657353,21897,220964,140474
1630934657363,21889,220925,140470
1630934657373,21883,220938,140453
1630934657383,21883,220934,140456
1630934657393,21880,220918,140460
1630934657403,21874,220920,140467
1630934657413,21882,220933,140481
1630934657423,21880,220932,140490
1630934657433,21886,220974,140479
1630934657443,21884,220969,140502
1630934657453,21883,220984,140501
1630934657463,21884,220957,140483
1630934657473,21884,220937,140498
1630934657483,21883,220939,140492
1630934657493,21886,220964,140491
1630934657503,21887,220956,140508
1630934657513,21889,221014,140503
1630934657523,21887,220978,140536
1630934657533,21892,220963,140511
1630934657543,21890,220974,140526
1630934657553,21896,221030,140525
1630934657563,21902,221004,140521
1630934657573,21895,221008,140534
1630934657583,21899,220996,140516
1630934657593,21910,221025,140534
1630934657603,21904,221037,140545
1630934657613,21909,221036,140552
1630934657623,21916,221055,140549
1630934657633,21919,221073,140552
1630934657643,21927,221052,140562
1630934657653,21925,221060,140568
1630934657663,21925,221092,140574
1630934657673,21933,221079,140588
1630934657683,21929,221100,140592
1630934657693,21939,221081,140575
1630934657703,21940,221096,140586
1630934657713,21940,221128,140592
1630934657723,21942,221064,140598
1630934657733,21947,221114,140604
1630934657743,21947,221100,140597
1630934657753,21958,221119,140597
1630934657763,21961,221075,140598
1630934657773,21960,221132,140585
1630934657783,21955,221118,140593
1630934657793,21957,221134,140596
1630934657803,21966,221141,140592
1630934657813,21966,221143,140600
1630934657823,21969,221161,140601
1630934657833,21970,221138,140583
1630934657843,21971,221147,140583
1630934657853,21972,221115,140591
1630934657863,21975,221177,140585
1630934657873,21976,221152,140594
1630934657883,21980,221169,140602
1630934657893,21992,221175,140599
1630934657903,21987,221162,140612
1630934657913,21981,221167,140615
1630934657923,21991,221210,140618
1630934657933,21998,221212,140601
1630934657943,22001,221215,140630
1630934657953,22003,221182,140604
1630934657963,22002,221210,140593
1630934657973,21996,221217,140573
1630934657983,21988,221158,140561
1630934657993,21977,221117,140515
1630934658003,21972,221105,140482
1630934658013,21953,221063,140461
1630934658023,21946,221029,140432
1630934658033,21934,221045,140428
1630934658043,21924,220968,140417
1630934658053,21915,220989,140405
1630934658063,21901,220958,140397
1630934658073,21905,220903,140379
1630934658083,21891,220926,140364
1630934658093,21888,220910,140357
1630934658103,21884,220870,140354
1630934658113,21881,220906,140351
1630934658123,21872,220846,140348
1630934658133,21863,220862,140336
1630934658143,21857,220856,140321
1630934658153,21851,220840,140322
1630934658163,21848,220833,140319
1630934658173,21843,220849,140325
1630934658183,21841,220804,140321
1630934658193,21845,220845,140318
1630934658203,21842,220798,140335
1630934658213,21841,220838,140352
1630934658223,21841,220834,140336
1630934658233,21836,220844,140330
1630934658243,21834,220831,140314
1630934658253,21837,220814,140340
1630934658263,21842,220842,140318
1630934658273,21836,220861,140335
1630934658283,21831,220859,140328
1630934658293,21833,220824,140314
1630934658303,21833,220805,140334
1630934658313,21837,220836,140312
1630934658323,21836,220848,140334
1630934658333,21830,220825,140320
1630934658343,21830,220862,140319
1630934658353,21834,220823,140340
1630934658363,21831,220840,140327
1630934658373,21828,220830,140311
1630934658383,21838,220832,140331
1630934658393,21834,220865,140323
1630934658403,21842,220850,140335
1630934658413,21836,220830,140334
1630934658423,21844,220857,140350
1630934658433,21845,220854,140367
1630934658443,21845,220857,140344
1630934658453,21848,220877,140349
1630934658463,21853,220873,140337
1630934658473,21853,220864,140322
1630934658483,21759,57612,57644
1630934658493,21752,90399,90424
1630934658503,21746,123168,122862
1630934658513,21739,155941,140070
1630934658523,21727,188539,140000
1630934658533,21722,220471,139979
1630934658543,21714,220526,139974
1630934658553,21708,220504,139947
1630934658563,21703,220474,139964
1630934658573,21691,220482,139950
1630934658583,21684,220419,139936
1630934658593,21681,220408,139952
1630934658603,21666,220417,139932
1630934658613,21662,220392,139923
1630934658623,21662,220399,139937
1630934658633,21647,220395,139915
1630934658643,21656,220389,139908
1630934658653,21649,220351,139907
1630934658663,21645,220361,139907
1630934658673,21642,220382,139909
1630934658683,21636,220351,139886
1630934658693,21635,220328,139901
1630934658703,21631,220333,139888
1630934658713,21630,220339,139909
1630934658723,21632,220329,139898
1630934658733,21626,220351,139906
1630934658743,21624,220317,139899
1630934658753,21625,220337,139891
1630934658763,21630,220330,139887
1630934658773,21625,220288,139904
1630934658783,21618,220335,139902
1630934658793,21627,220310,139889
1630934658803,21612,220308,139871
1630934658813,21623,220302,139901
1630934658823,21624,220320,139889
1630934658833,21615,220317,139889
1630934658843,21619,220291,139882
1630934658853,21619,220326,139889
1630934658863,21619,220304,139892
1630934658873,21620,220322,139895
1630934658883,21615,220327,139872
1630934658893,21623,220310,139890
1630934658903,21629,220307,139893
1630934658913,21624,220329,139890
1630934658923,21624,220349,139882
1630934658933,21633,220337,139900
1630934658943,21630,220318,139909
1630934658953,21639,220355,139890
1630934658963,21634,220375,139908
1630934658973,21641,220344,139900
1630934658983,21638,220354,139898
1630934658993,21640,220360,139908
1630934659003,21648,220375,139910
1630934659013,21649,220352,139930
1630934659023,21657,220402,139918
1630934659033,21658,220380,139919
1630934659043,21662,220416,139920
1630934659053,21661,220391,139931
1630934659063,21660,220410,139925
1630934659073,21664,220399,139931
1630934659083,21674,220409,139927
1630934659093,21679,220435,139945
1630934659103,21671,220398,139952
1630934659113,21671,220444,139933
1630934659123,21682,220469,139941
1630934659133,21694,220431,139959
1630934659143,21692,220464,139960
1630934659153,21691,220462,139935
1630934659163,21698,220458,139957
1630934659173,21700,220475,139966
1630934659183,21703,220472,139971
1630934659193,21705,220492,139959
1630934659203,21709,220517,139972
1630934659213,21709,220490,139966
1630934659223,21699,220503,139953
1630934659233,21696,220455,139928
1630934659243,21692,220448,139903
1630934659253,21690,220407,139924
1630934659263,21677,220383,139907
1630934659273,21663,220346,139899
1630934659283,21655,220362,139891
1630934659293,21670,220319,139870
1630934659303,21650,220335,139887
1630934659313,21635,220313,139857
1630934659323,21635,220285,139864
1630934659333,21624,220346,139857
1630934659343,21623,220298,139844
1630934659353,21607,220285,139833
1630934659363,21610,220238,139838
1630934659373,21600,220245,139820
1630934659383,21592,220229,139809
1630934659393,21589,220208,139793
1630934659403,21586,220215,139789
1630934659413,21589,220220,139775
1630934659423,21566,220207,139777
1630934659433,21572,220197,139807
1630934659443,21575,220221,139785
1630934659453,21569,220202,139779
1630934659463,21566,220216,139775
1630934659473,21565,220203,139766
1630934659483,21562,220180,139770
1630934659493,21565,220181,139775
1630934659503,21562,220208,139779
1630934659513,21562,220185,139778
1630934659523,21562,220212,139782
1630934659533,21558,220204,139768
1630934659543,21558,220235,139773
1630934659553,21563,220210,139751
1630934659563,21565,220192,139771
1630934659573,21572,220214,139765
1630934659583,21562,220199,139780
1630934659593,21567,220202,139762
1630934659603,21557,220221,139783
1630934659613,21571,220193,139772
1630934659623,21572,220212,139775
1630934659633,21573,220197,139798
1630934659643,21578,220215,139799
1630934659653,21576,220221,139792
1630934659663,21583,220255,139801
1630934659673,21587,220237,139812
1630934659683,21587,220257,139825
1630934659693,21591,220252,139813
1630934659703,21593,220265,139828
1630934659713,21597,220284,139829
1630934659723,21600,220309,139839
1630934659733,21609,220295,139832
1630934659743,21618,220313,139854
1630934659753,21614,220344,139859
1630934659763,21624,220320,139871
1630934659773,21632,220316,139862
1630934659783,21628,220324,139875
1630934659793,21632,220349,139899
1630934659803,21636,220350,139894
1630934659813,21638,220367,139893
1630934659823,21648,220365,139907
1630934659833,21651,220367,139907
1630934659843,21649,220412,139912
1630934659853,21651,220385,139923
1630934659863,21661,220407,139922
1630934659873,21664,220412,139932
1630934659883,21672,220428,139921
1630934659893,21671,220402,139938
1630934659903,21676,220426,139940
1630934659913,21669,220441,139926
1630934659923,21678,220438,139902
1630934659933,21673,220379,139895
1630934659943,21663,220410,139890
1630934659953,21658,220400,139897
1630934659963,21651,220353,139900
1630934659973,21642,220352,139912
1630934659983,21633,220328,139892
1630934659993,21630,220303,139906
1630934660003,21627,220304,139866
1630934660013,21615,220305,139862
1630934660023,21613,220257,139863
1630934660033,21612,220288,139863
1630934660043,21600,220270,139880
1630934660053,21601,220213,139876
1630934660063,21585,220260,139860
1630934660073,21595,220209,139856
1630934660083,21583,220248,139860
1630934660093,21576,220211,139865
1630934660103,21583,220231,139888
1630934660113,21578,220190,139883
1630934660123,21586,220213,139891
1630934660133,21579,220241,139914
1630934660143,21582,220251,139922
1630934660153,21585,220265,139930
1630934660163,21589,220252,139954
1630934660173,21591,220251,139965
1630934660183,21595,220228,139982
1630934660193,21596,220251,139965
1630934660203,21595,220255,139984
1630934660213,21600,220294,140002
1630934660223,21606,220280,140005
1630934660233,21610,220283,140020
1630934660243,21610,220280,140035
1630934660253,21605,220319,140024
1630934660263,21605,220305,140010
1630934660273,21605,220273,140031
1630934660283,21609,220333,140020
1630934660293,21610,220332,140029
1630934660303,21609,220317,140016
1630934660313,21609,220325,140033
1630934660323,21606,220318,140024
1630934660333,21614,220319,140023
1630934660343,21610,220303,140034
1630934660353,21608,220300,140019
1630934660363,21615,220309,140032
1630934660373,21614,220314,140030
1630934660383,21619,220310,140015
1630934660393,21625,220338,140015
1630934660403,21608,220324,140014
1630934660413,21625,220349,140022
1630934660423,21635,220327,140032
1630934660433,21631,220336,140035
1630934660443,21633,220348,140052
1630934660453,21634,220373,140042
1630934660463,21640,220394,140029
1630934660473,21640,220381,140042
1630934660483,21640,220397,140029
1630934660493,21651,220399,140035
1630934660503,21650,220380,140057
1630934660513,21655,220382,140045
1630934660523,21660,220403,140072
1630934660533,21665,220443,140051
1630934660543,21673,220450,140058
1630934660553,21669,220458,140069
1630934660563,21684,220481,140107
1630934660573,21678,220445,140083
1630934660583,21681,220453,140078
1630934660593,21685,220485,140100
1630934660603,21689,220475,140096
1630934660613,21698,220483,140098
1630934660623,21696,220490,140106
1630934660633,21703,220491,140113
1630934660643,21705,220507,140105
1630934660653,21707,220503,140098
1630934660663,21704,220507,140084
1630934660673,21698,220478,140059
1630934660683,21694,220444,140061
1630934660693,21687,220434,140044
1630934660703,21683,220432,140030
1630934660713,21667,220404,140021
1630934660723,21673,220397,140044
1630934660733,21664,220385,140015
1630934660743,21642,220348,140034
1630934660753,21640,220347,140008
1630934660763,21635,220330,140002
1630934660773,21633,220339,140007
1630934660783,21627,220322,139997
1630934660793,21624,220333,139999
1630934660803,21624,220306,140027
1630934660813,21610,220289,139998
1630934660823,21600,220283,140007
1630934660833,21602,220280,139997
1630934660843,21598,220278,139998
1630934660853,21596,220259,140002
1630934660863,21590,220253,139994
1630934660873,21591,220263,139992
1630934660883,21592,220237,140003
1630934660893,21599,220241,139999
1630934660903,21589,220274,140006
1630934660913,21588,220306,140031
1630934660923,21596,220255,140016
1630934660933,21584,220262,140013
1630934660943,21582,220271,140015
1630934660953,21591,220277,140026
1630934660963,21590,220246,140020
1630934660973,21586,220240,140018
1630934660983,21587,220287,140028
1630934660993,21589,220275,140045
1630934661003,21584,220253,140026
1630934661013,21587,220285,140038
1630934661023,21590,220269,140037
1630934661033,21596,220268,140032
1630934661043,21583,220263,140038
1630934661053,21592,220278,140046
1630934661063,21593,220265,140064
1630934661073,21603,220292,140043
1630934661083,21600,220287,140046
1630934661093,21608,220285,140056
1630934661103,21607,220275,140074
1630934661113,21607,220307,140060
1630934661123,21607,220307,140071
1630934661133,21608,220313,140065
1630934661143,21612,220323,140075
1630934661153,21609,220280,140057
1630934661163,21616,220299,140070
1630934661173,21618,220330,140075
1630934661183,21625,220317,140070
1630934661193,21631,220287,140072
1630934661203,21627,220331,140052
1630934661213,21614,220347,140056
1630934661223,21635,220297,140056
1630934661233,21638,220364,140076
1630934661243,21638,220352,140067
1630934661253,21636,220326,140086
1630934661263,21639,220333,140068
1630934661273,21647,220332,140071
1630934661283,21642,220349,140087
1630934661293,21653,220367,140074
1630934661303,21650,220365,140098
1630934661313,21656,220371,140085
1630934661323,21660,220372,140073
1630934661333,21666,220387,140073
1630934661343,21672,220375,140087
1630934661353,21671,220406,140106
1630934661363,21681,220389,140114
1630934661373,21670,220399,140109
1630934661383,21693,220444,140142
1630934661393,21693,220452,140125
1630934661403,21701,220448,140141
1630934661413,21695,220417,140136
1630934661423,21688,220418,140110
1630934661433,21688,220406,140121
1630934661443,21681,220385,140094
1630934661453,21677,220373,140095
1630934661463,21667,220330,140087
1630934661473,21662,220329,140092
1630934661483,21659,220322,140081
1630934661493,21648,220313,140084
1630934661503,21644,220304,140081
1630934661513,21646,220261,140077
1630934661523,21629,220264,140069
1630934661533,21637,220288,140061
1630934661543,21634,220254,140071
1630934661553,21620,220236,140060
1630934661563,21607,220247,140049
1630934661573,21605,220229,140047
1630934661583,21600,220214,140043
1630934661593,21596,220179,140037
1630934661603,21600,220212,140048
1630934661613,21591,220198,140048
1630934661623,21591,220186,140026
1630934661633,21592,220189,140052
1630934661643,21587,220183,140048
1630934661653,21590,220212,140051
1630934661663,21589,220208,140049
1630934661673,21591,220224,140048
1630934661683,21599,220199,140051
1630934661693,21597,220219,140037
1630934661703,21591,220205,140048
1630934661713,21589,220199,140035
1630934661723,21578,220209,140062
1630934661733,21591,220245,140041
1630934661743,21581,220206,140043
1630934661753,21585,220240,140054
1630934661763,21586,220218,140048
1630934661773,21587,220204,140048
1630934661783,21591,220241,140046
1630934661793,21592,220222,140061
1630934661803,21592,220245,140064
1630934661813,21592,220229,140037
1630934661823,21589,220233,140074
1630934661833,21600,220221,140060
1630934661843,21599,220255,140069
1630934661853,21603,220241,140072
1630934661863,21601,220277,140071
1630934661873,21605,220258,140077
1630934661883,21616,220284,140078
1630934661893,21616,220292,140076
1630934661903,21619,220262,140080
1630934661913,21614,220288,140098
1630934661923,21625,220281,140090
1630934661933,21622,220294,140087
1630934661943,21627,220329,140082
1630934661953,21628,220337,140090
1630934661963,21635,220310,140108
1630934661973,21640,220330,140118
1630934661983,21640,220335,140099
1630934661993,21653,220351,140117
1630934662003,21653,220350,140120
1630934662013,21659,220342,140123
1630934662023,21654,220388,140147
1630934662033,21657,220374,140122
1630934662043,21668,220374,140133
1630934662053,21684,220408,140136
1630934662063,21672,220426,140153
1630934662073,21682,220403,140148
1630934662083,21680,220418,140158
1630934662093,21690,220447,140171
1630934662103,21695,220437,140170
1630934662113,21702,220440,140169
1630934662123,21705,220468,140195
1630934662133,21707,220480,140193
1630934662143,21714,220478,140199
1630934662153,21721,220534,140210
1630934662163,21730,220518,140240
1630934662173,21746,220565,140259
1630934662183,21749,220600,140291
1630934662193,21774,220603,140324
1630934662203,21777,220642,140334
1630934662213,21773,220609,140291
1630934662223,21749,220568,140253
1630934662233,21733,220481,140194
1630934662243,21704,220457,140160
1630934662253,21683,220405,140103
1630934662263,21672,220365,140093
1630934662273,21654,220315,140043
1630934662283,21644,220273,140011
1630934662293,21625,220248,140000
1630934662303,21608,220197,139960
1630934662313,21594,220177,139937
1630934662323,21581,220167,139943
1630934662333,21574,220146,139892
1630934662343,21562,220132,139880
1630934662353,21563,220111,139860
1630934662363,21538,220094,139858
1630934662373,21523,220100,139870
1630934662383,21534,220094,139854
1630934662393,21526,220103,139882
1630934662403,21527,220091,139868
1630934662413,21529,220144,139886
1630934662423,21533,220163,139905
1630934662433,21531,220142,139907
1630934662443,21537,220173,139919
1630934662453,21541,220197,139943
1630934662463,21542,220213,139954
1630934662473,21546,220233,139949
1630934662483,21551,220225,139977
1630934662493,21559,220234,139993
1630934662503,21557,220203,139997
1630934662513,21565,220281,140019
1630934662523,21569,220293,140040
1630934662533,21570,220276,140043
1630934662543,21572,220296,140052
1630934662553,21584,220315,140075
1630934662563,21589,220297,140095
1630934662573,21588,220329,140090
1630934662583,21595,220325,140101
1630934662593,21596,220338,140120
1630934662603,21605,220379,140118
1630934662613,21606,220376,140112
1630934662623,21609,220405,140137
1630934662633,21612,220367,140139
1630934662643,21621,220400,140135
1630934662653,21623,220409,140141
1630934662663,21625,220468,140159
1630934662673,21626,220424,140163
1630934662683,21639,220421,140175
1630934662693,21637,220478,140164
1630934662703,21636,220471,140172
1630934662713,21646,220489,140183
1630934662723,21652,220460,140184
1630934662733,21651,220467,140183
1630934662743,21650,220457,140176
1630934662753,21649,220482,140169
1630934662763,21656,220487,140160
1630934662773,21652,220473,140163
1630934662783,21660,220484,140155
1630934662793,21666,220504,140183
1630934662803,21672,220504,140187
1630934662813,21674,220497,140175
1630934662823,21684,220520,140192
1630934662833,21679,220511,140186
1630934662843,21688,220524,140196
1630934662853,21693,220545,140212
1630934662863,21690,220542,140200
1630934662873,21696,220564,140190
1630934662883,21691,220547,140150
1630934662893,21684,220489,140111
1630934662903,21670,220436,140049
1630934662913,21660,220422,139992
1630934662923,21656,220377,139984
1630934662933,21655,220407,139951
1630934662943,21645,220350,139893
1630934662953,21623,220297,139801
1630934662963,21600,220196,139726
1630934662973,21570,220129,139608
1630934662983,21531,220019,139490
1630934662993,21507,219924,139392
1630934663003,21476,219827,139300
1630934663013,21438,219759,139259
1630934663023,21429,219714,139176
1630934663033,21398,219668,139110
1630934663043,21383,219633,139075
1630934663053,21376,219642,139027
1630934663063,21371,219644,139076
1630934663073,21376,219664,139097
1630934663083,21383,219636,139145
1630934663093,21393,219678,139198
1630934663103,21403,219723,139235
1630934663113,21404,219707,139264
1630934663123,21412,219732,139285
1630934663133,21408,219693,139265
1630934663143,21394,219691,139263
1630934663153,21386,219706,139253
1630934663163,21385,219666,139227
1630934663173,21366,219678,139206
1630934663183,21362,219680,139230
1630934663193,21381,219693,139201
1630934663203,21367,219670,139228
1630934663213,21371,219706,139264
1630934663223,21382,219776,139311
1630934663233,21399,219797,139382
1630934663243,21425,219879,139484
1630934663253,21457,219954,139598
1630934663263,21489,220015,139700
1630934663273,21522,220096,139807
1630934663283,21539,220162,139900
1630934663293,21557,220222,139974
1630934663303,21578,220280,140052
1630934663313,21593,220361,140087
1630934663323,21594,220373,140116
1630934663333,21596,220381,140146
1630934663343,21593,220411,140098
1630934663353,21585,220407,140126
1630934663363,21583,220397,140085
1630934663373,21567,220386,140059
1630934663383,21541,220340,139979
1630934663393,21523,220298,139908
1630934663403,21503,220237,139829
1630934663413,21490,220192,139756
1630934663423,21486,220183,139707
1630934663433,21486,220133,139687
1630934663443,21489,220156,139688
1630934663453,21494,220165,139702
1630934663463,21508,220226,139716
1630934663473,21525,220237,139754
1630934663483,21537,220291,139773
1630934663493,21546,220325,139809
1630934663503,21582,220351,139861
1630934663513,21601,220415,139928
1630934663523,21635,220489,140053
1630934663533,21673,220607,140169
1630934663543,21704,220660,140269
1630934663553,21723,220739,140338
1630934663563,21740,220737,140389
1630934663573,21738,220757,140378
1630934663583,21734,220757,140360
1630934663593,21724,220734,140343
1630934663603,21714,220768,140317
1630934663613,21702,220718,140274
1630934663623,21692,220712,140254
1630934663633,21684,220685,140200
1630934663643,21662,220627,140139
1630934663653,21641,220621,140040
1630934663663,21616,220522,139973
1630934663673,21579,220489,139876
1630934663683,21561,220422,139779
1630934663693,21525,220338,139658
1630934663703,21502,220270,139534
1630934663713,21462,220158,139399
1630934663723,21422,220047,139262
1630934663733,21377,219961,139122
1630934663743,21350,219895,139040
1630934663753,21321,219865,139001
1630934663763,21314,219853,139004
1630934663773,21310,219806,139002
1630934663783,21314,219806,139038
1630934663793,21345,219863,139103
1630934663803,21358,219907,139212
1630934663813,21391,219961,139293
1630934663823,21406,220038,139373
1630934663833,21437,220096,139458
1630934663843,21448,220105,139537
1630934663853,21456,220157,139589
1630934663863,21461,220142,139585
1630934663873,21460,220178,139617
1630934663883,21468,220195,139652
1630934663893,21476,220219,139703
1630934663903,21485,220234,139728
1630934663913,21492,220244,139777
1630934663923,21497,220234,139815
1630934663933,21502,220296,139844
1630934663943,21509,220294,139838
1630934663953,21506,220363,139873
1630934663963,21494,220309,139876
1630934663973,21506,220322,139858
1630934663983,21491,220273,139851
1630934663993,21493,220269,139844
1630934664003,21493,220299,139843
1630934664013,21488,220304,139846
1630934664023,21488,220290,139838
1630934664033,21481,220289,139814
1630934664043,21479,220269,139802
1630934664053,21475,220243,139777
1630934664063,21479,220236,139781
1630934664073,21472,220256,139768
1630934664083,21476,220257,139760
1630934664093,21474,220221,139755
1630934664103,21474,220261,139776
1630934664113,21478,220252,139774
1630934664123,21492,220263,139771
1630934664133,21489,220245,139790
1630934664143,21490,220246,139784
1630934664153,21498,220258,139809
1630934664163,21508,220313,139833
1630934664173,21525,220340,139880
1630934664183,21533,220357,139896
1630934664193,21539,220386,139912
1630934664203,21547,220359,139924
1630934664213,21555,220390,139948
1630934664223,21565,220398,139957
1630934664233,21571,220408,139956
1630934664243,21574,220409,139966
1630934664253,21578,220451,139966
1630934664263,21584,220421,139959
1630934664273,21592,220438,139964
1630934664283,21603,220414,139977
1630934664293,21599,220451,139962
1630934664303,21595,220425,139945
1630934664313,21599,220438,139961
1630934664323,21607,220441,139943
1630934664333,21601,220442,139937
1630934664343,21607,220432,139934
1630934664353,21611,220453,139948
1630934664363,21609,220434,139934
1630934664373,21611,220415,139927
1630934664383,21612,220407,139933
1630934664393,21614,220447,139944
1630934664403,21619,220414,139926
1630934664413,21622,220436,139935
1630934664423,21629,220433,139920
1630934664433,21630,220435,139939
1630934664443,21630,220477,139936
1630934664453,21636,220447,139922
1630934664463,21627,220433,139928
1630934664473,21634,220439,139900
1630934664483,21630,220451,139897
1630934664493,21623,220392,139886
1630934664503,21613,220385,139898
1630934664513,21607,220363,139883
1630934664523,21599,220320,139888
1630934664533,21595,220337,139876
1630934664543,21583,220263,139841
1630934664553,21576,220276,139845
1630934664563,21567,220255,139837
1630934664573,21558,220245,139819
1630934664583,21545,220214,139802
1630934664593,21543,220200,139809
1630934664603,21533,220163,139786
1630934664613,21528,220147,139769
1630934664623,21511,220135,139740
1630934664633,21516,220122,139724
1630934664643,21513,220067,139752
1630934664653,21505,220080,139710
1630934664663,21503,220059,139731
1630934664673,21491,220032,139709
1630934664683,21490,220058,139690
1630934664693,21492,220039,139690
1630934664703,21485,220055,139691
1630934664713,21485,219998,139684
1630934664723,21482,220042,139658
1630934664733,21475,220037,139668
1630934664743,21471,220027,139648
1630934664753,21477,220019,139639
1630934664763,21477,219996,139634
1630934664773,21473,220006,139647
1630934664783,21475,220008,139649
1630934664793,21475,219988,139639
1630934664803,21476,219990,139620
1630934664813,21477,219969,139628
1630934664823,21473,219971,139633
1630934664833,21471,219972,139628
1630934664843,21478,219986,139620
1630934664853,21472,219957,139624
1630934664863,21479,219992,139616
1630934664873,21476,219976,139624
1630934664883,21477,220017,139603
1630934664893,21484,219980,139621
1630934664903,21490,220019,139632
1630934664913,21495,220019,139624
1630934664923,21500,220011,139635
1630934664933,21501,220013,139634
1630934664943,21503,220028,139638
1630934664953,21515,220022,139627
1630934664963,21512,220021,139636
1630934664973,21522,220056,139645
1630934664983,21515,220049,139659
1630934664993,21515,220071,139622
1630934665003,21520,220047,139644
1630934665013,21521,220069,139629
1630934665023,21527,220053,139647
1630934665033,21532,220035,139640
1630934665043,21531,220036,139636
1630934665053,21535,220054,139627
1630934665063,21532,220046,139639
1630934665073,21540,220053,139614
1630934665083,21541,220053,139613
1630934665093,21537,220060,139612
1630934665103,21547,220069,139600
1630934665113,21539,220079,139608
1630934665123,21547,220086,139598
1630934665133,21549,220063,139594
1630934665143,21553,220080,139601
1630934665153,21554,220094,139595
1630934665163,21555,220097,139603
1630934665173,21557,220085,139596
1630934665183,21563,220084,139596
1630934665193,21552,220061,139552
1630934665203,21551,220061,139518
1630934665213,21546,220055,139528
1630934665223,21537,220016,139519
1630934665233,21537,219963,139511
1630934665243,21521,219972,139491
1630934665253,21518,219930,139483
1630934665263,21515,219937,139485
1630934665273,21504,219908,139479
1630934665283,21487,219896,139464
1630934665293,21487,219861,139464
1630934665303,21488,219868,139454
1630934665313,21486,219862,139434
1630934665323,21471,219853,139441
1630934665333,21469,219847,139444
1630934665343,21467,219840,139428
1630934665353,21460,219804,139437
1630934665363,21454,219788,139446
1630934665373,21453,219822,139441
1630934665383,21447,219822,139430
1630934665393,21447,219789,139431
1630934665403,21442,219817,139446
1630934665413,21442,219811,139438
1630934665423,21438,219783,139432
1630934665433,21446,219844,139431
1630934665443,21434,219787,139428
1630934665453,21438,219818,139439
1630934665463,21438,219791,139432
1630934665473,21438,219798,139434
1630934665483,21439,219779,139449
1630934665493,21434,219818,139440
1630934665503,21437,219801,139435
1630934665513,21434,219825,139441
1630934665523,21432,219815,139446
1630934665533,21436,219826,139448
1630934665543,21431,219779,139442
1630934665553,21430,219779,139421
1630934665563,21439,219810,139433
1630934665573,21433,219788,139431
1630934665583,21434,219815,139421
1630934665593,21445,219826,139440
1630934665603,21443,219804,139440
1630934665613,21443,219799,139443
1630934665623,21443,219820,139430
1630934665633,21449,219803,139438
1630934665643,21448,219797,139441
1630934665653,21448,219835,139434
1630934665663,21452,219825,139449
1630934665673,21453,219887,139460
1630934665683,21457,219874,139456
1630934665693,21463,219864,139457
1630934665703,21465,219886,139483
1630934665713,21467,219888,139475
1630934665723,21472,219895,139483
1630934665733,21478,219888,139502
1630934665743,21475,219915,139477
1630934665753,21479,219892,139502
1630934665763,21487,219909,139481
1630934665773,21492,219918,139494
1630934665783,21486,219914,139497
1630934665793,21495,219917,139505
1630934665803,21494,219964,139494
1630934665813,21488,219896,139486
1630934665823,21502,219940,139500
1630934665833,21504,219979,139501
1630934665843,21505,219936,139515
1630934665853,21504,219980,139504
1630934665863,21510,219923,139530
1630934665873,21511,219969,139486
1630934665883,21507,219946,139501
1630934665893,21511,219930,139467
1630934665903,21502,219943,139482
1630934665913,21491,219878,139456
1630934665923,21485,219814,139435
1630934665933,21480,219844,139444
1630934665943,21471,219834,139459
1630934665953,21460,219815,139423
1630934665963,21453,219793,139407
1630934665973,21446,219793,139418
1630934665983,21438,219787,139415
1630934665993,21432,219749,139411
1630934666003,21427,219767,139403
1630934666013,21412,219722,139397
1630934666023,21413,219708,139386
1630934666033,21403,219701,139380
1630934666043,21403,219721,139368
1630934666053,21394,219705,139373
1630934666063,21382,219703,139367
1630934666073,21384,219673,139349
1630934666083,21381,219649,139354
1630934666093,21368,219686,139356
1630934666103,21365,219638,139350
1630934666113,21360,219652,139349
1630934666123,21364,219624,139329
1630934666133,21366,219663,139346
1630934666143,21361,219623,139334
1630934666153,21362,219624,139353
1630934666163,21358,219640,139350
1630934666173,21357,219645,139331
1630934666183,21360,219617,139343
1630934666193,21358,219610,139345
1630934666203,21358,219642,139337
1630934666213,21363,219606,139342
1630934666223,21344,219659,139346
1630934666233,21353,219629,139341
1630934666243,21361,219627,139354
1630934666253,21346,219637,139343
1630934666263,21358,219621,139323
1630934666273,21356,219627,139343
1630934666283,21360,219659,139338
1630934666293,21358,219643,139354
1630934666303,21355,219663,139333
1630934666313,21360,219671,139337
1630934666323,21362,219658,139339
1630934666333,21362,219666,139330
1630934666343,21368,219701,139337
1630934666353,21368,219651,139332
1630934666363,21371,219638,139336
1630934666373,21372,219716,139341
1630934666383,21376,219674,139327
1630934666393,21377,219656,139323
1630934666403,21379,219675,139327
1630934666413,21372,219674,139332
1630934666423,21375,219709,139340
1630934666433,21384,219689,139316
1630934666443,21386,219667,139323
1630934666453,21387,219673,139329
1630934666463,21391,219713,139323
1630934666473,21390,219695,139336
1630934666483,21400,219690,139319
1630934666493,21395,219709,139330
1630934666503,21399,219703,139329
1630934666513,21401,219708,139341
1630934666523,21403,219712,139330
1630934666533,21404,219730,139318
1630934666543,21407,219706,139332
1630934666553,21404,219737,139311
1630934666563,21410,219733,139300
1630934666573,21405,219702,139286
1630934666583,21396,219721,139277
1630934666593,21388,219675,139270
1630934666603,21385,219635,139261
1630934666613,21372,219645,139263
1630934666623,21369,219587,139239
1630934666633,21351,219569,139235
1630934666643,21348,219568,139224
1630934666653,21339,219526,139217
1630934666663,21332,219520,139212
1630934666673,21319,219517,139198
1630934666683,21309,219507,139187
1630934666693,21301,219495,139186
1630934666703,21290,219453,139182
1630934666713,21289,219462,139169
1630934666723,21267,219427,139171
1630934666733,21273,219443,139153
1630934666743,21255,219402,139120
1630934666753,21261,219386,139114
1630934666763,21250,219377,139141
1630934666773,21244,219377,139129
1630934666783,21239,219383,139127
1630934666793,21235,219369,139116
1630934666803,21233,219373,139113
1630934666813,21232,219363,139107
1630934666823,21226,219372,139106
1630934666833,21222,219364,139099
1630934666843,21217,219356,139091
1630934666853,21219,219309,139077
1630934666863,21219,219350,139077
1630934666873,21212,219374,139060
1630934666883,21222,219321,139068
1630934666893,21212,219304,139063
1630934666903,21215,219313,139035
1630934666913,21206,219291,139061
1630934666923,21212,219304,139026
1630934666933,21212,219310,139026
1630934666943,21208,219283,139036
1630934666953,21204,219306,139032
1630934666963,21212,219306,139028
1630934666973,21212,219284,139036
1630934666983,21211,219304,139032
1630934666993,21211,219304,139031
1630934667003,21214,219345,139034
1630934667013,21218,219310,139020
1630934667023,21217,219315,139027
1630934667033,21223,219307,139012
1630934667043,21223,219356,139037
1630934667053,21232,219335,139043
1630934667063,21230,219346,139035
1630934667073,21233,219348,139035
1630934667083,21235,219353,139044
1630934667093,21236,219395,139035
1630934667103,21238,219334,139041
1630934667113,21243,219348,139043
1630934667123,21246,219394,139062
1630934667133,21252,219403,139045
1630934667143,21250,219369,139061
1630934667153,21257,219405,139060
1630934667163,21257,219404,139042
1630934667173,21263,219409,139026
1630934667183,21264,219411,139039
1630934667193,21263,219408,139041
1630934667203,21265,219432,139045
1630934667213,21284,219445,139071
1630934667223,21268,219425,139053
1630934667233,21281,219428,139061
1630934667243,21282,219454,139055
1630934667253,21292,219426,139061
1630934667263,21291,219481,139066
1630934667273,21299,219483,139065
1630934667283,21301,219473,139074
1630934667293,21306,219476,139071
1630934667303,21308,219486,139092
1630934667313,21315,219491,139068
1630934667323,21318,219511,139083
1630934667333,21313,219499,139061
1630934667343,21314,219480,139053
1630934667353,21303,219449,139049
1630934667363,21299,219454,139018
1630934667373,21297,219425,139034
1630934667383,21290,219387,139024
1630934667393,21280,219375,139023
1630934667403,21272,219364,139007
1630934667413,21259,219330,139000
1630934667423,21251,219304,139009
1630934667433,21245,219315,138996
1630934667443,21234,219301,138969
1630934667453,21227,219302,138981
1630934667463,21220,219284,138962
1630934667473,21214,219286,138960
1630934667483,21207,219272,138951
1630934667493,21201,219199,138945
1630934667503,21189,219231,138940
1630934667513,21184,219231,138923
1630934667523,21176,219197,138931
1630934667533,21174,219225,138938
1630934667543,21169,219173,138905
1630934667553,21175,219160,138899
1630934667563,21173,219169,138908
1630934667573,21168,219162,138904
1630934667583,21164,219164,138913
1630934667593,21161,219194,138890
1630934667603,21162,219167,138884
1630934667613,21170,219151,138883
1630934667623,21159,219170,138886
1630934667633,21163,219151,138878
1630934667643,21158,219162,138875
1630934667653,21160,219149,138887
1630934667663,21161,219140,138875
1630934667673,21161,219132,138885
1630934667683,21163,219116,138874
1630934667693,21165,219154,138875
1630934667703,21160,219164,138884
1630934667713,21164,219172,138903
1630934667723,21175,219138,138876
1630934667733,21172,219189,138888
1630934667743,21174,219172,138879
1630934667753,21178,219192,138892
1630934667763,21175,219189,138891
1630934667773,21182,219214,138893
1630934667783,21190,219212,138901
1630934667793,21190,219210,138905
1630934667803,21194,219184,138905
1630934667813,21194,219232,138910
1630934667823,21196,219221,138919
1630934667833,21203,219225,138921
1630934667843,21205,219226,138931
1630934667853,21200,219259,138926
1630934667863,21212,219251,138923
1630934667873,21203,219260,138939
1630934667883,21225,219249,138952
1630934667893,21220,219261,138945
1630934667903,21229,219255,138948
1630934667913,21226,219289,138950
1630934667923,21236,219290,138945
1630934667933,21234,219273,138947
1630934667943,21240,219309,138947
1630934667953,21243,219285,138946
1630934667963,21244,219324,138956
1630934667973,21244,219290,138931
1630934667983,21250,219285,138938
1630934667993,21253,219307,138921
1630934668003,21253,219339,138931
1630934668013,21260,219323,138930
1630934668023,21274,219353,138938
1630934668033,21262,219377,138948
1630934668043,21259,219367,138949
1630934668053,21271,219346,138956
1630934668063,21274,219378,138949
1630934668073,21276,219346,138924
1630934668083,21275,219329,138915
1630934668093,21274,219337,138898
1630934668103,21271,219293,138863
1630934668113,21255,219254,138866
1630934668123,21248,219249,138863
1630934668133,21239,219231,138824
1630934668143,21237,219215,138831
1630934668153,21226,219178,138812
1630934668163,21221,219199,138800
1630934668173,21216,219165,138820
1630934668183,21209,219149,138798
1630934668193,21204,219134,138780
1630934668203,21199,219140,138794
1630934668213,21187,219124,138788
1630934668223,21175,219082,138783
1630934668233,21170,219089,138769
1630934668243,21170,219083,138765
1630934668253,21167,219078,138736
1630934668263,21159,219068,138770
1630934668273,21155,219071,138747
1630934668283,21150,219056,138736
1630934668293,21149,219044,138724
1630934668303,21145,219063,138730
1630934668313,21146,219047,138744
1630934668323,21140,219053,138736
1630934668333,21143,219026,138744
1630934668343,21141,219023,138721
1630934668353,21145,219017,138733
1630934668363,21139,219025,138723
1630934668373,21140,219019,138719
1630934668383,21145,219021,138702
1630934668393,21138,219015,138712
1630934668403,21142,219008,138724
1630934668413,21144,218990,138718
1630934668423,21147,219058,138745
1630934668433,21150,219032,138721
1630934668443,21149,219056,138739
1630934668453,21152,219068,138742
1630934668463,21151,219050,138734
1630934668473,21153,219066,138739
1630934668483,21153,219063,138731
1630934668493,21163,219053,138762
1630934668503,21155,219064,138744
1630934668513,21165,219086,138737
1630934668523,21169,219103,138750
1630934668533,21170,219096,138766
1630934668543,21184,219107,138774
1630934668553,21181,219100,138772
1630934668563,21183,219128,138774
1630934668573,21191,219104,138767
1630934668583,21194,219147,138785
1630934668593,21200,219149,138766
1630934668603,21204,219126,138785
1630934668613,21205,219164,138783
1630934668623,21215,219171,138786
1630934668633,21209,219189,138800
1630934668643,21219,219159,138802
1630934668653,21223,219156,138802
1630934668663,21232,219198,138803
1630934668673,21232,219210,138805
1630934668683,21245,219227,138814
1630934668693,21239,219215,138794
1630934668703,21249,219216,138793
1630934668713,21246,219217,138825
1630934668723,21251,219215,138835
1630934668733,21257,219252,138840
1630934668743,21259,219248,138837
1630934668753,21264,219256,138835
1630934668763,21273,219289,138851
1630934668773,21274,219316,138847
1630934668783,21280,219289,138856
1630934668793,21287,219294,138863
1630934668803,21284,219315,138855
1630934668813,21291,219304,138859
1630934668823,21291,219274,138834
1630934668833,21276,219276,138821
1630934668843,21274,219260,138834
1630934668853,21267,219262,138817
1630934668863,21265,219196,138816
1630934668873,21251,219202,138809
1630934668883,21258,219155,138798
1630934668893,21243,219164,138795
1630934668903,21231,219145,138772
1630934668913,21228,219157,138780
1630934668923,21216,219124,138768
1630934668933,21210,219133,138754
1630934668943,21212,219126,138747
1630934668953,21202,219095,138758
1630934668963,21191,219085,138755
1630934668973,21194,219085,138745
1630934668983,21187,219081,138739
1630934668993,21181,219033,138735
1630934669003,21176,219023,138729
1630934669013,21163,219038,138741
1630934669023,21165,219017,138726
1630934669033,21180,219055,138715
1630934669043,21165,219047,138712
1630934669053,21165,219061,138734
1630934669063,21169,219029,138741
1630934669073,21167,219062,138750
1630934669083,21169,219039,138726
1630934669093,21170,219053,138711
1630934669103,21167,219037,138716
1630934669113,21166,219041,138729
1630934669123,21172,219046,138735
1630934669133,21168,219045,138718
1630934669143,21169,219042,138718
1630934669153,21178,219061,138722
1630934669163,21163,219055,138715
1630934669173,21165,219043,138713
1630934669183,21166,219048,138732
1630934669193,21178,219045,138709
1630934669203,21174,219046,138714
1630934669213,21175,219088,138723
1630934669223,21181,219070,138738
1630934669233,21184,219059,138715
1630934669243,21177,219081,138709
1630934669253,21183,219095,138736
1630934669263,21191,219084,138734
1630934669273,21192,219097,138739
1630934669283,21190,219090,138718
1630934669293,21195,219114,138727
1630934669303,21193,219114,138712
1630934669313,21195,219121,138722
1630934669323,21201,219130,138722
1630934669333,21191,219133,138734
1630934669343,21198,219168,138724
1630934669353,21211,219124,138718
1630934669363,21206,219161,138716
1630934669373,21214,219140,138730
1630934669383,21220,219171,138711
1630934669393,21217,219177,138707
1630934669403,21225,219158,138722
1630934669413,21228,219158,138717
1630934669423,21225,219156,138737
1630934669433,21230,219207,138715
1630934669443,21237,219194,138716
1630934669453,21238,219209,138751
1630934669463,21250,219196,138750
1630934669473,21255,219225,138754
1630934669483,21261,219226,138772
1630934669493,21260,219225,138768
1630934669503,21270,219274,138753
1630934669513,21254,219260,138763
1630934669523,21274,219258,138761
1630934669533,21281,219298,138779
1630934669543,21285,219292,138808
1630934669553,21284,219254,138777
1630934669563,21288,219266,138780
1630934669573,21288,219300,138766
1630934669583,21283,219274,138750
1630934669593,21280,219225,138749
1630934669603,21274,219219,138744
1630934669613,21272,219194,138731
1630934669623,21263,219226,138746
1630934669633,21263,219195,138769
1630934669643,21258,219201,138768
1630934669653,21246,219185,138754
1630934669663,21253,219164,138765
1630934669673,21245,219183,138773
1630934669683,21237,219156,138766
1630934669693,21236,219142,138766
1630934669703,21226,219143,138770
1630934669713,21219,219132,138766
1630934669723,21217,219120,138760
1630934669733,21210,219118,138744
1630934669743,21202,219110,138730
1630934669753,21199,219064,138749
1630934669763,21193,219055,138731
1630934669773,21187,219081,138714
1630934669783,21182,219060,138708
1630934669793,21184,219066,138705
1630934669803,21172,219058,138706
1630934669813,21163,219067,138709
1630934669823,21176,219061,138672
1630934669833,21180,219053,138681
1630934669843,21176,219065,138671
1630934669853,21171,219085,138679
1630934669863,21176,219044,138675
1630934669873,21171,219052,138677
1630934669883,21173,219060,138659
1630934669893,21171,219038,138659
1630934669903,21168,219065,138642
1630934669913,21171,219036,138644
1630934669923,21171,218998,138629
1630934669933,21164,219029,138632
1630934669943,21169,219048,138635
1630934669953,21169,219060,138644
1630934669963,21164,219069,138653
1630934669973,21180,219082,138642
1630934669983,21176,219057,138634
1630934669993,21179,219053,138638
1630934670003,21181,219066,138645
1630934670013,21175,219072,138642
1630934670023,21182,219080,138634
1630934670033,21180,219067,138649
1630934670043,21189,219057,138653
1630934670053,21184,219069,138651
1630934670063,21188,219096,138641
1630934670073,21191,219122,138653
1630934670083,21191,219103,138669
1630934670093,21200,219114,138640
1630934670103,21201,219130,138657
1630934670113,21201,219156,138661
1630934670123,21206,219107,138652
1630934670133,21217,219139,138639
1630934670143,21211,219175,138638
1630934670153,21217,219154,138640
1630934670163,21217,219124,138651
1630934670173,21222,219153,138641
1630934670183,21224,219159,138650
1630934670193,21222,219164,138666
1630934670203,21233,219180,138655
1630934670213,21232,219185,138645
1630934670223,21236,219159,138642
1630934670233,21240,219211,138661
1630934670243,21243,219216,138656
1630934670253,21241,219186,138639
1630934670263,21251,219206,138658
1630934670273,21258,219200,138661
1630934670283,21257,219218,138649
1630934670293,21256,219214,138650
1630934670303,21254,219203,138640
1630934670313,21243,219161,138616
1630934670323,21245,219140,138610
1630934670333,21236,219094,138592
1630934670343,21226,219093,138570
1630934670353,21212,219074,138564
1630934670363,21202,219066,138537
1630934670373,21198,219015,138543
1630934670383,21188,219032,138535
1630934670393,21186,219031,138517
1630934670403,21177,219001,138516
1630934670413,21172,218981,138494
1630934670423,21166,218974,138515
1630934670433,21160,218973,138481
1630934670443,21156,218958,138492
1630934670453,21153,218937,138495
1630934670463,21140,218940,138486
