timestamp,green,ir,red
1630935167686,21098,57619,57657
1630935167696,21097,90398,90423
1630935167706,21113,123172,122856
1630935167716,21106,155938,137087
1630935167726,21110,188529,137102
1630935167736,21100,220665,137078
1630935167746,21110,221155,137083
1630935167756,21160,221276,137271
1630935167766,21200,221398,137372
1630935167776,21183,221344,137340
1630935167786,21147,221280,137256
1630935167796,21102,221157,137101
1630935167806,21082,221158,137063
1630935167816,21092,221197,137085
1630935167826,21082,221138,137131
1630935167836,21096,221193,137124
1630935167846,21091,221149,137111
1630935167856,21068,221131,137052
1630935167866,21049,221061,136983
1630935167876,21029,221027,136901
1630935167886,21036,220970,136887
1630935167896,21024,220968,136848
1630935167906,21005,220930,136798
1630935167916,20990,220871,136739
1630935167926,20974,220823,136681
1630935167936,20963,220823,136663
1630935167946,20949,220794,136625
1630935167956,20951,220744,136591
1630935167966,20922,220671,136512
1630935167976,20905,220562,136437
1630935167986,20894,220575,136444
1630935167996,20903,220589,136444
1630935168006,20904,220598,136499
1630935168016,20907,220602,136475
1630935168026,20890,220621,136471
1630935168036,20894,220607,136528
1630935168046,21000,220931,136903
1630935168056,21046,221118,137058
1630935168066,21043,221015,136972
1630935168076,21020,220946,136904
1630935168086,20991,220790,136759
1630935168096,20968,220784,136751
1630935168106,20955,220734,136712
1630935168116,20947,220665,136648
1630935168126,20982,220753,136803
1630935168136,21052,221060,137111
1630935168146,21104,221216,137272
1630935168156,21107,221271,137303
1630935168166,21073,221173,137199
1630935168176,21035,221071,137083
1630935168186,21009,221025,137034
1630935168196,20998,221011,137014
1630935168206,20984,221017,136992
1630935168216,20952,220961,136902
1630935168226,20945,220866,136832
1630935168236,20917,220790,136731
1630935168246,20894,220719,136686
1630935168256,20883,220709,136674
1630935168266,20877,220687,136633
1630935168276,20868,220646,136618
1630935168286,20854,220636,136582
1630935168296,20849,220655,136578
1630935168306,20850,220634,136575
1630935168316,20847,220622,136561
1630935168326,20843,220581,136537
1630935168336,20833,220555,136502
1630935168346,20821,220510,136434
1630935168356,20810,220498,136439
1630935168366,20818,220442,136442
1630935168376,20838,220470,136447
1630935168386,20838,220509,136495
1630935168396,20842,220551,136502
1630935168406,20825,220489,136450
1630935168416,20795,220433,136376
1630935168426,20848,220631,136621
1630935168436,20906,220796,136755
1630935168446,20897,220765,136767
1630935168456,20937,220912,136963
1630935168466,20936,220945,137007
1630935168476,20929,220899,136939
1630935168486,20908,220804,136884
1630935168496,20899,220820,136857
1630935168506,20913,220865,136957
1630935168516,20962,221052,137170
1630935168526,21000,221126,137232
1630935168536,20981,221111,137211
1630935168546,20966,221003,137143
1630935168556,20931,220968,137048
1630935168566,20916,220919,137038
1630935168576,20913,220904,137037
1630935168586,20916,220924,137059
1630935168596,20903,220960,137007
1630935168606,20890,220919,136988
1630935168616,20880,220894,136958
1630935168626,20870,220877,136926
1630935168636,20864,220876,136897
1630935168646,20857,220845,136858
1630935168656,20845,220804,136830
1630935168666,20835,220730,136797
1630935168676,20820,220689,136688
1630935168686,20786,220597,136601
1630935168696,20766,220552,136545
1630935168706,20740,220514,136462
1630935168716,20730,220447,136447
1630935168726,20728,220486,136460
1630935168736,20743,220498,136482
1630935168746,20751,220532,136535
1630935168756,20748,220526,136506
1630935168766,20740,220496,136501
1630935168776,20720,220433,136449
1630935168786,20721,220446,136438
1630935168796,20782,220649,136714
1630935168806,20807,220724,136748
1630935168816,20754,220530,136524
1630935168826,20722,220410,136414
1630935168836,20671,220258,136249
1630935168846,20683,220275,136295
1630935168856,20712,220327,136426
1630935168866,20745,220487,136608
1630935168876,20834,220736,136912
1630935168886,20894,220963,137165
1630935168896,20911,221031,137251
1630935168906,20912,221072,137302
1630935168916,20921,221080,137338
1630935168926,20916,221107,137333
1630935168936,20917,221090,137342
1630935168946,20911,221060,137338
1630935168956,20890,221039,137270
1630935168966,20853,220967,137170
1630935168976,20832,220866,137083
1630935168986,20801,220838,136977
1630935168996,20778,220808,136909
1630935169006,20763,220734,136861
1630935169016,20734,220687,136800
1630935169026,20718,220630,136733
1630935169036,20706,220573,136669
1630935169046,20694,220540,136630
1630935169056,20677,220483,136568
1630935169066,20661,220444,136516
1630935169076,20647,220405,136447
1630935169086,20645,220380,136482
1630935169096,20646,220374,136458
1630935169106,20632,220354,136424
1630935169116,20628,220334,136402
1630935169126,20608,220242,136325
1630935169136,20594,220183,136278
1630935169146,20598,220157,136284
1630935169156,20598,220139,136270
1630935169166,20592,220174,136277
1630935169176,20590,220110,136220
1630935169186,20551,220071,136157
1630935169196,20560,220109,136244
1630935169206,20634,220361,136524
1630935169216,20642,220379,136540
1630935169226,20664,220490,136679
1630935169236,20681,220616,136798
1630935169246,20683,220594,136777
1630935169256,20660,220474,136700
1630935169266,20622,220340,136546
1630935169276,20605,220307,136554
1630935169286,20654,220504,136786
1630935169296,20715,220619,136971
1630935169306,20730,220718,137043
1630935169316,20731,220718,137074
1630935169326,20733,220736,137086
1630935169336,20730,220741,137127
1630935169346,20739,220810,137214
1630935169356,20771,220887,137299
1630935169366,20784,220929,137344
1630935169376,20778,220979,137374
1630935169386,20771,220980,137351
1630935169396,20770,220957,137360
1630935169406,20775,220988,137382
1630935169416,20771,220980,137372
1630935169426,20763,220973,137353
1630935169436,20744,220945,137304
1630935169446,20728,220901,137233
1630935169456,20713,220855,137174
1630935169466,20702,220855,137162
1630935169476,20686,220811,137100
1630935169486,20675,220758,137063
1630935169496,20666,220709,136993
1630935169506,20657,220690,136967
1630935169516,20645,220650,136936
1630935169526,20630,220625,136875
1630935169536,20637,220615,136903
1630935169546,20651,220616,136928
1630935169556,20662,220644,136973
1630935169566,20677,220661,136999
1630935169576,20690,220730,137083
1630935169586,20713,220856,137221
1630935169596,20689,220799,137185
1630935169606,20693,220829,137231
1630935169616,20676,220771,137133
1630935169626,20652,220640,137075
1630935169636,20686,220744,137203
1630935169646,20712,220773,137271
1630935169656,20742,220896,137407
1630935169666,20796,221110,137605
1630935169676,20826,221220,137713
1630935169686,20820,221244,137750
1630935169696,20791,221222,137686
1630935169706,20769,221149,137604
1630935169716,20750,221096,137558
1630935169726,20729,221039,137500
1630935169736,20714,220991,137432
1630935169746,20690,220882,137328
1630935169756,20654,220832,137215
1630935169766,20612,220688,137080
1630935169776,20582,220590,137008
1630935169786,20566,220612,136924
1630935169796,20550,220545,136876
1630935169806,20538,220502,136832
1630935169816,20514,220467,136766
1630935169826,20491,220402,136666
1630935169836,20462,220320,136589
1630935169846,20445,220264,136533
1630935169856,20440,220230,136507
1630935169866,20443,220228,136512
1630935169876,20438,220170,136494
1630935169886,20443,220187,136501
1630935169896,20459,220192,136550
1630935169906,20480,220246,136611
1630935169916,20483,220257,136620
1630935169926,20472,220219,136602
1630935169936,20460,220214,136557
1630935169946,20446,220169,136513
1630935169956,20435,220144,136510
1630935169966,20508,220391,136837
1630935169976,20512,220358,136780
1630935169986,20487,220346,136803
1630935169996,20521,220481,136911
1630935170006,20523,220477,136925
1630935170016,20522,220441,136921
1630935170026,20508,220409,136883
1630935170036,20508,220390,136894
1630935170046,20555,220587,137097
1630935170056,20623,220789,137336
1630935170066,20652,220860,137408
1630935170076,20651,220864,137408
1630935170086,20624,220767,137340
1630935170096,20611,220744,137284
1630935170106,20608,220775,137302
1630935170116,20605,220773,137298
1630935170126,20607,220730,137276
1630935170136,20598,220734,137249
1630935170146,20577,220719,137171
1630935170156,20575,220704,137145
1630935170166,20545,220655,137098
1630935170176,20532,220587,137014
1630935170186,20520,220567,136978
1630935170196,20510,220527,136924
1630935170206,20497,220516,136882
1630935170216,20484,220479,136833
1630935170226,20473,220434,136791
1630935170236,20466,220402,136767
1630935170246,20468,220393,136744
1630935170256,20466,220398,136759
1630935170266,20473,220415,136766
1630935170276,20466,220346,136717
1630935170286,20452,220302,136650
1630935170296,20442,220255,136593
1630935170306,20442,220293,136631
1630935170316,20477,220289,136703
1630935170326,20486,220356,136734
1630935170336,20492,220364,136780
1630935170346,20533,220469,136999
1630935170356,20625,220804,137286
1630935170366,20598,220722,137190
1630935170376,20562,220652,137128
1630935170386,20557,220593,137078
1630935170396,20543,220500,137011
1630935170406,20555,220540,137053
1630935170416,20581,220574,137124
1630935170426,20631,220746,137317
1630935170436,20731,221074,137657
1630935170446,20801,221282,137915
1630935170456,20828,221385,137996
1630935170466,20830,221358,137962
1630935170476,20791,221347,137903
1630935170486,20778,221226,137814
1630935170496,20767,221211,137796
1630935170506,20765,221137,137735
1630935170516,20738,221066,137665
1630935170526,20720,221024,137575
1630935170536,20698,220915,137503
1630935170546,20677,220866,137418
1630935170556,20660,220844,137386
1630935170566,20647,220804,137330
1630935170576,20643,220828,137307
1630935170586,20632,220768,137255
1630935170596,20618,220716,137210
1630935170606,20615,220681,137202
1630935170616,20616,220645,137137
1630935170626,20600,220623,137109
1630935170636,20596,220543,137034
1630935170646,20565,220508,136982
1630935170656,20553,220448,136919
1630935170666,20565,220433,136902
1630935170676,20566,220419,136916
1630935170686,20575,220445,136931
1630935170696,20583,220442,136934
1630935170706,20571,220436,136901
1630935170716,20549,220349,136820
1630935170726,20530,220304,136780
1630935170736,20601,220552,137096
1630935170746,20613,220558,137077
1630935170756,20604,220557,137095
1630935170766,20645,220682,137247
1630935170776,20653,220730,137292
1630935170786,20644,220685,137227
1630935170796,20641,220629,137220
1630935170806,20650,220650,137240
1630935170816,20721,220873,137495
1630935170826,20797,221089,137699
1630935170836,20791,221062,137632
1630935170846,20767,220981,137538
1630935170856,20734,220866,137391
1630935170866,20697,220780,137299
1630935170876,20692,220805,137325
1630935170886,20705,220800,137342
1630935170896,20708,220800,137334
1630935170906,20701,220802,137318
1630935170916,20690,220766,137266
1630935170926,20674,220719,137187
1630935170936,20658,220685,137110
1630935170946,20649,220641,137056
1630935170956,20639,220594,137007
1630935170966,20619,220564,136963
1630935170976,20609,220545,136920
1630935170986,20602,220539,136857
1630935170996,20585,220491,136827
1630935171006,20576,220460,136774
1630935171016,20559,220396,136728
1630935171026,20556,220368,136663
1630935171036,20544,220324,136638
1630935171046,20546,220325,136636
1630935171056,20556,220302,136660
1630935171066,20568,220300,136664
1630935171076,20565,220329,136654
1630935171086,20566,220328,136623
1630935171096,20558,220256,136603
1630935171106,20603,220443,136842
1630935171116,20601,220440,136789
1630935171126,20563,220289,136610
1630935171136,20526,220195,136518
1630935171146,20499,220069,136376
1630935171156,20499,220041,136377
1630935171166,20506,220135,136438
1630935171176,20552,220234,136574
1630935171186,20657,220547,136925
1630935171196,20751,220810,137212
1630935171206,20779,220869,137301
1630935171216,20773,220870,137257
1630935171226,20736,220757,137163
1630935171236,20711,220704,137025
1630935171246,20688,220593,136958
1630935171256,20663,220515,136878
1630935171266,20643,220471,136807
1630935171276,20613,220414,136674
1630935171286,20575,220264,136540
1630935171296,20531,220215,136389
1630935171306,20511,220106,136316
1630935171316,20499,220075,136245
1630935171326,20480,220004,136213
1630935171336,20471,219937,136137
1630935171346,20459,219934,136082
1630935171356,20446,219913,136035
1630935171366,20440,219866,135997
1630935171376,20441,219827,135997
1630935171386,20435,219847,135972
1630935171396,20432,219809,135952
1630935171406,20433,219823,135932
1630935171416,20429,219777,135881
1630935171426,20423,219770,135878
1630935171436,20440,219779,135898
1630935171446,20447,219799,135937
1630935171456,20451,219778,135970
1630935171466,20453,219812,135956
1630935171476,20464,219741,135954
1630935171486,20458,219776,135937
1630935171496,20449,219727,135900
1630935171506,20464,219833,136004
1630935171516,20555,220079,136318
1630935171526,20544,220035,136230
1630935171536,20578,220200,136421
1630935171546,20629,220335,136557
1630935171556,20638,220326,136553
1630935171566,20624,220294,136493
1630935171576,20621,220263,136460
1630935171586,20640,220331,136545
1630935171596,20725,220627,136870
1630935171606,20790,220684,136954
1630935171616,20792,220694,136949
1630935171626,20783,220674,136905
1630935171636,20751,220561,136790
1630935171646,20737,220551,136755
1630935171656,20740,220613,136775
1630935171666,20748,220571,136791
1630935171676,20756,220604,136826
1630935171686,20747,220578,136793
1630935171696,20753,220579,136779
1630935171706,20744,220588,136753
1630935171716,20746,220573,136726
1630935171726,20743,220511,136691
1630935171736,20733,220499,136640
1630935171746,20718,220447,136598
1630935171756,20712,220416,136545
1630935171766,20723,220471,136581
1630935171776,20729,220448,136562
1630935171786,20727,220453,136544
1630935171796,20700,220365,136461
1630935171806,20692,220311,136443
1630935171816,20700,220327,136467
1630935171826,20716,220379,136484
1630935171836,20729,220407,136526
1630935171846,20719,220338,136500
1630935171856,20717,220299,136501
1630935171866,20718,220297,136508
1630935171876,20716,220356,136522
1630935171886,20790,220603,136803
1630935171896,20845,220751,136935
1630935171906,20785,220518,136700
1630935171916,20760,220484,136654
1630935171926,20752,220439,136629
1630935171936,20794,220504,136745
1630935171946,20875,220748,137000
1630935171956,20964,220902,137240
1630935171966,21063,221184,137553
1630935171976,21138,221433,137811
1630935171986,21144,221470,137827
1630935171996,21138,221483,137810
1630935172006,21149,221492,137848
1630935172016,21170,221579,137912
1630935172026,21207,221623,138023
1630935172036,21219,221663,138029
1630935172046,21215,221634,137988
1630935172056,21203,221556,137955
1630935172066,21185,221517,137877
1630935172076,21169,221470,137822
1630935172086,21175,221453,137814
1630935172096,21177,221491,137798
1630935172106,21167,221435,137769
1630935172116,21140,221404,137687
1630935172126,21129,221356,137630
1630935172136,21098,221254,137524
1630935172146,21059,221173,137397
1630935172156,21046,221076,137322
1630935172166,21030,221074,137257
1630935172176,21013,221022,137188
1630935172186,20995,220960,137122
1630935172196,20978,220895,137060
1630935172206,20978,220829,137014
1630935172216,20975,220781,137005
1630935172226,20972,220791,137000
1630935172236,20974,220775,136970
1630935172246,20963,220767,136986
1630935172256,20957,220710,136977
1630935172266,20960,220738,137014
1630935172276,20960,220764,137004
1630935172286,21019,220960,137249
1630935172296,21107,221191,137476
1630935172306,21040,220985,137246
1630935172316,21051,221119,137373
1630935172326,21082,221131,137442
1630935172336,21091,221150,137433
1630935172346,21104,221178,137448
1630935172356,21114,221142,137478
1630935172366,21162,221292,137681
1630935172376,21282,221672,138106
1630935172386,21354,221840,138233
1630935172396,21371,221862,138251
1630935172406,21355,221804,138198
1630935172416,21326,221707,138063
1630935172426,21299,221642,138038
1630935172436,21314,221689,138057
1630935172446,21308,221699,138065
1630935172456,21313,221732,138070
1630935172466,21317,221661,138048
1630935172476,21309,221685,138041
1630935172486,21312,221714,138028
1630935172496,21311,221698,138028
1630935172506,21299,221672,137991
1630935172516,21287,221619,137934
1630935172526,21265,221577,137842
1630935172536,21237,221486,137766
1630935172546,21222,221437,137692
1630935172556,21211,221401,137618
1630935172566,21202,221408,137598
1630935172576,21201,221393,137550
1630935172586,21165,221327,137487
1630935172596,21167,221269,137462
1630935172606,21146,221191,137409
1630935172616,21158,221178,137396
1630935172626,21149,221194,137431
1630935172636,21148,221179,137406
1630935172646,21145,221161,137410
1630935172656,21148,221188,137395
1630935172666,21153,221167,137468
1630935172676,21259,221529,137860
1630935172686,21268,221561,137838
1630935172696,21199,221389,137660
1630935172706,21180,221359,137566
1630935172716,21151,221219,137418
1630935172726,21153,221245,137445
1630935172736,21170,221304,137508
1630935172746,21227,221413,137717
1630935172756,21339,221743,138080
1630935172766,21410,221965,138267
1630935172776,21396,221936,138228
1630935172786,21371,221950,138186
1630935172796,21354,221863,138099
1630935172806,21338,221820,138040
1630935172816,21326,221742,137984
1630935172826,21311,221728,137926
1630935172836,21287,221650,137849
1630935172846,21262,221571,137770
1630935172856,21241,221477,137650
1630935172866,21219,221462,137607
1630935172876,21206,221398,137563
1630935172886,21201,221385,137533
1630935172896,21183,221355,137508
1630935172906,21177,221345,137479
1630935172916,21172,221293,137433
1630935172926,21156,221235,137355
1630935172936,21141,221211,137291
1630935172946,21107,221142,137242
1630935172956,21109,221088,137204
1630935172966,21102,221028,137156
1630935172976,21096,221027,137154
1630935172986,21104,221034,137165
1630935172996,21116,221056,137203
1630935173006,21119,221082,137249
1630935173016,21123,221093,137259
1630935173026,21117,221116,137244
1630935173036,21102,221045,137197
1630935173046,21084,220991,137129
1630935173056,21072,220941,137098
1630935173066,21153,221256,137439
1630935173076,21162,221230,137331
1630935173086,21078,221039,137141
1630935173096,21107,221190,137277
1630935173106,21086,221099,137187
1630935173116,21097,221100,137180
1630935173126,21102,221108,137190
1630935173136,21103,221098,137202
1630935173146,21145,221235,137386
1630935173156,21202,221362,137519
1630935173166,21201,221349,137468
1630935173176,21194,221320,137411
1630935173186,21164,221224,137299
1630935173196,21139,221136,137257
1630935173206,21148,221182,137308
1630935173216,21168,221249,137376
1630935173226,21185,221256,137436
1630935173236,21182,221244,137412
1630935173246,21174,221261,137359
1630935173256,21171,221214,137343
1630935173266,21170,221203,137326
1630935173276,21162,221225,137329
1630935173286,21152,221178,137269
1630935173296,21148,221184,137260
1630935173306,21134,221157,137205
1630935173316,21126,221109,137181
1630935173326,21118,221135,137175
1630935173336,21130,221148,137210
1630935173346,21139,221174,137221
1630935173356,21134,221138,137190
1630935173366,21117,221102,137151
1630935173376,21101,221010,137075
1630935173386,21084,220952,137033
1630935173396,21082,220924,137012
1630935173406,21062,220891,136988
1630935173416,21076,220921,137018
1630935173426,21070,220924,137024
1630935173436,21078,220910,137022
1630935173446,21089,220932,137101
1630935173456,21199,221330,137535
1630935173466,21218,221333,137484
1630935173476,21148,221137,137284
1630935173486,21109,221005,137111
1630935173496,21065,220874,136961
1630935173506,21064,220882,136961
1630935173516,21088,220881,137008
1630935173526,21117,220981,137122
1630935173536,21206,221212,137399
1630935173546,21308,221502,137734
1630935173556,21364,221646,137909
1630935173566,21359,221723,137919
1630935173576,21333,221617,137826
1630935173586,21311,221544,137753
1630935173596,21300,221546,137738
1630935173606,21300,221470,137738
1630935173616,21302,221467,137713
1630935173626,21292,221466,137691
1630935173636,21271,221425,137607
1630935173646,21248,221318,137534
1630935173656,21235,221362,137483
1630935173666,21228,221286,137480
1630935173676,21227,221285,137484
1630935173686,21231,221306,137458
1630935173696,21226,221268,137434
1630935173706,21215,221241,137413
1630935173716,21211,221283,137408
1630935173726,21200,221181,137380
1630935173736,21191,221166,137352
1630935173746,21184,221117,137302
1630935173756,21153,221066,137228
1630935173766,21148,221052,137225
1630935173776,21150,221021,137217
1630935173786,21149,220968,137216
1630935173796,21143,220971,137203
1630935173806,21128,220969,137196
1630935173816,21125,220947,137179
1630935173826,21108,220984,137193
1630935173836,21138,221058,137342
1630935173846,21167,221160,137364
1630935173856,21149,221088,137334
1630935173866,21165,221170,137366
1630935173876,21155,221122,137345
1630935173886,21156,221168,137403
1630935173896,21154,221184,137368
1630935173906,21169,221191,137408
1630935173916,21197,221264,137524
1630935173926,21269,221401,137699
1630935173936,21305,221554,137802
1630935173946,21301,221505,137763
1630935173956,21270,221438,137671
1630935173966,21241,221344,137554
1630935173976,21216,221278,137505
1630935173986,21217,221321,137504
1630935173996,21219,221348,137537
1630935174006,21220,221317,137543
1630935174016,21215,221313,137536
1630935174026,21211,221335,137509
1630935174036,21197,221289,137461
1630935174046,21200,221329,137476
1630935174056,21194,221328,137463
1630935174066,21196,221263,137420
1630935174076,21185,221256,137391
1630935174086,21174,221230,137364
1630935174096,21164,221161,137308
1630935174106,21155,221175,137297
1630935174116,21143,221124,137253
1630935174126,21132,221076,137213
1630935174136,21114,221036,137154
1630935174146,21093,220966,137131
1630935174156,21087,220927,137098
1630935174166,21080,220951,137140
1630935174176,21087,220942,137149
1630935174186,21094,220959,137174
1630935174196,21097,220948,137156
1630935174206,21078,220920,137144
1630935174216,21065,220889,137115
1630935174226,21107,221040,137306
1630935174236,21173,221252,137515
1630935174246,21125,221075,137313
1630935174256,21084,220980,137176
1630935174266,21045,220849,137032
1630935174276,21038,220777,137000
1630935174286,21062,220867,137076
1630935174296,21097,220928,137168
1630935174306,21158,221088,137386
1630935174316,21249,221360,137663
1630935174326,21284,221491,137782
1630935174336,21259,221469,137738
1630935174346,21240,221434,137703
1630935174356,21232,221412,137682
1630935174366,21230,221409,137683
1630935174376,21241,221407,137698
1630935174386,21237,221379,137657
1630935174396,21211,221340,137593
1630935174406,21183,221227,137478
1630935174416,21146,221156,137357
1630935174426,21135,221125,137316
1630935174436,21131,221124,137302
1630935174446,21122,221108,137268
1630935174456,21112,221026,137212
1630935174466,21089,220955,137160
1630935174476,21066,220970,137082
1630935174486,21043,220911,137019
1630935174496,21047,220863,137005
1630935174506,21022,220776,136961
1630935174516,21006,220769,136941
1630935174526,20990,220716,136885
1630935174536,20982,220647,136795
1630935174546,20947,220540,136712
1630935174556,20929,220481,136645
1630935174566,20908,220464,136615
1630935174576,20894,220417,136624
1630935174586,20886,220388,136582
1630935174596,20864,220381,136553
1630935174606,20842,220312,136466
1630935174616,20812,220208,136413
1630935174626,20840,220320,136572
1630935174636,20922,220598,136786
1630935174646,20891,220523,136704
1630935174656,20922,220604,136851
1630935174666,20924,220652,136875
1630935174676,20947,220688,136909
1630935174686,20926,220687,136892
1630935174696,20921,220618,136845
1630935174706,20927,220655,136874
1630935174716,20956,220717,136929
1630935174726,20959,220655,136876
1630935174736,20940,220593,136786
1630935174746,20904,220518,136709
1630935174756,20881,220450,136629
1630935174766,20878,220492,136641
1630935174776,20886,220519,136696
1630935174786,20900,220568,136756
1630935174796,20904,220590,136748
1630935174806,20900,220595,136748
1630935174816,20895,220584,136725
1630935174826,20876,220501,136679
1630935174836,20873,220504,136628
1630935174846,20856,220444,136606
1630935174856,20847,220433,136573
1630935174866,20842,220394,136529
1630935174876,20821,220358,136458
1630935174886,20804,220314,136406
1630935174896,20785,220254,136336
1630935174906,20779,220233,136332
1630935174916,20766,220165,136293
1630935174926,20745,220130,136242
1630935174936,20730,220117,136205
1630935174946,20713,220010,136121
1630935174956,20694,219957,136111
1630935174966,20683,219944,136067
1630935174976,20672,219893,136026
1630935174986,20660,219879,136020
1630935174996,20660,219925,136077
1630935175006,20688,220012,136234
1630935175016,20792,220379,136591
1630935175026,20757,220273,136404
1630935175036,20719,220139,136272
1630935175046,20682,220041,136137
1630935175056,20648,219934,135991
1630935175066,20633,219891,135935
1630935175076,20618,219845,135873
1630935175086,20617,219811,135878
1630935175096,20677,220012,136136
1630935175106,20738,220176,136296
1630935175116,20757,220269,136393
1630935175126,20767,220327,136455
1630935175136,20762,220310,136410
1630935175146,20759,220304,136415
1630935175156,20756,220290,136411
1630935175166,20764,220335,136411
1630935175176,20767,220356,136437
1630935175186,20765,220307,136413
1630935175196,20752,220262,136366
1630935175206,20736,220249,136326
1630935175216,20722,220163,136245
1630935175226,20709,220148,136193
1630935175236,20700,220092,136139
1630935175246,20687,220051,136112
1630935175256,20695,220082,136102
1630935175266,20690,220098,136117
1630935175276,20680,220096,136094
1630935175286,20662,219988,136051
1630935175296,20649,220009,136034
1630935175306,20642,219966,136037
1630935175316,20644,219968,136058
1630935175326,20625,219955,136071
1630935175336,20629,219917,136069
1630935175346,20611,219884,136061
1630935175356,20608,219848,136042
1630935175366,20579,219814,136029
1630935175376,20573,219817,135983
1630935175386,20566,219821,135987
1630935175396,20603,219978,136222
1630935175406,20676,220231,136439
1630935175416,20665,220169,136383
1630935175426,20666,220186,136437
1630935175436,20650,220217,136380
1630935175446,20642,220177,136360
1630935175456,20644,220172,136352
1630935175466,20644,220135,136345
1630935175476,20664,220201,136423
1630935175486,20703,220349,136563
1630935175496,20717,220304,136527
1630935175506,20694,220260,136467
1630935175516,20679,220149,136360
1630935175526,20656,220112,136317
1630935175536,20648,220127,136330
1630935175546,20653,220210,136353
1630935175556,20651,220166,136343
1630935175566,20648,220170,136339
1630935175576,20643,220168,136332
1630935175586,20642,220171,136312
1630935175596,20635,220151,136306
1630935175606,20631,220148,136282
1630935175616,20628,220144,136266
1630935175626,20627,220117,136246
1630935175636,20624,220132,136266
1630935175646,20622,220123,136251
1630935175656,20597,220006,136146
1630935175666,20571,219950,136073
1630935175676,20548,219867,136025
1630935175686,20521,219894,136005
1630935175696,20519,219858,136046
1630935175706,20533,219868,136099
1630935175716,20542,219935,136162
1630935175726,20538,219905,136155
1630935175736,20522,219874,136115
1630935175746,20503,219839,136074
1630935175756,20474,219790,136007
1630935175766,20496,219869,136163
1630935175776,20559,220104,136373
1630935175786,20520,219977,136200
1630935175796,20493,219881,136137
1630935175806,20468,219795,136062
1630935175816,20470,219793,136068
1630935175826,20501,219849,136175
1630935175836,20515,219951,136223
1630935175846,20561,220071,136410
1630935175856,20610,220280,136606
1630935175866,20645,220342,136648
1630935175876,20644,220380,136680
1630935175886,20634,220350,136677
1630935175896,20639,220361,136713
1630935175906,20651,220421,136737
1630935175916,20656,220377,136728
1630935175926,20650,220386,136714
1630935175936,20635,220339,136633
1630935175946,20609,220268,136555
1630935175956,20587,220224,136495
1630935175966,20579,220208,136488
1630935175976,20577,220156,136474
1630935175986,20583,220217,136425
1630935175996,20544,220159,136382
1630935176006,20545,220065,136316
1630935176016,20521,220057,136276
1630935176026,20508,220027,136238
1630935176036,20493,219983,136163
1630935176046,20471,219862,136112
1630935176056,20435,219779,136003
1630935176066,20397,219682,135928
1630935176076,20376,219631,135893
1630935176086,20367,219601,135909
1630935176096,20360,219605,135913
1630935176106,20352,219574,135893
1630935176116,20337,219560,135898
1630935176126,20318,219548,135869
1630935176136,20312,219480,135845
1630935176146,20308,219516,135904
1630935176156,20395,219874,136297
1630935176166,20406,219863,136290
1630935176176,20418,219921,136339
1630935176186,20425,219970,136404
1630935176196,20411,219921,136354
1630935176206,20409,219942,136338
1630935176216,20405,219885,136313
1630935176226,20402,219884,136290
1630935176236,20438,219949,136417
1630935176246,20489,220114,136536
1630935176256,20501,220143,136542
1630935176266,20506,220114,136542
1630935176276,20496,220097,136515
1630935176286,20483,220106,136508
1630935176296,20478,220096,136519
1630935176306,20488,220070,136515
1630935176316,20476,220122,136513
1630935176326,20472,220093,136473
1630935176336,20442,220017,136396
1630935176346,20429,220018,136383
1630935176356,20426,219969,136320
1630935176366,20415,219953,136287
1630935176376,20400,219916,136245
1630935176386,20389,219867,136235
1630935176396,20379,219832,136176
1630935176406,20368,219857,136141
1630935176416,20363,219819,136147
1630935176426,20363,219793,136127
1630935176436,20358,219769,136113
1630935176446,20341,219707,136073
1630935176456,20310,219637,136005
1630935176466,20284,219563,135933
1630935176476,20262,219492,135849
1630935176486,20222,219434,135809
1630935176496,20214,219412,135787
1630935176506,20204,219426,135765
1630935176516,20202,219373,135790
1630935176526,20187,219361,135771
1630935176536,20178,219360,135755
1630935176546,20174,219402,135802
1630935176556,20260,219762,136181
1630935176566,20261,219720,136096
1630935176576,20208,219545,135926
1630935176586,20188,219495,135875
1630935176596,20160,219354,135702
1630935176606,20161,219338,135713
1630935176616,20161,219298,135667
1630935176626,20171,219300,135719
1630935176636,20227,219539,135961
1630935176646,20315,219748,136243
1630935176656,20347,219925,136375
1630935176666,20351,219982,136399
1630935176676,20336,219927,136351
1630935176686,20325,219911,136313
1630935176696,20322,219880,136277
1630935176706,20321,219861,136283
1630935176716,20318,219865,136270
1630935176726,20313,219831,136227
1630935176736,20289,219777,136152
1630935176746,20266,219685,136056
1630935176756,20238,219657,135994
1630935176766,20231,219624,135957
1630935176776,20226,219622,135938
1630935176786,20225,219566,135884
1630935176796,20198,219534,135838
1630935176806,20190,219474,135787
1630935176816,20165,219409,135702
1630935176826,20133,219311,135619
1630935176836,20123,219229,135555
1630935176846,20105,219127,135524
1630935176856,20091,219135,135494
1630935176866,20067,219093,135464
1630935176876,20047,219028,135430
1630935176886,20037,219043,135434
1630935176896,20046,219076,135504
1630935176906,20063,219144,135596
1630935176916,20079,219167,135657
1630935176926,20086,219227,135688
1630935176936,20079,219231,135736
1630935176946,20154,219475,136015
1630935176956,20173,219522,136015
1630935176966,20171,219556,136039
1630935176976,20165,219552,135990
1630935176986,20130,219491,135951
1630935176996,20124,219461,135881
1630935177006,20104,219344,135789
1630935177016,20079,219269,135709
1630935177026,20091,219268,135747
1630935177036,20121,219375,135851
1630935177046,20148,219395,135855
1630935177056,20147,219367,135831
1630935177066,20129,219344,135770
1630935177076,20118,219304,135740
1630935177086,20117,219339,135732
1630935177096,20120,219338,135762
1630935177106,20130,219358,135762
1630935177116,20122,219387,135759
1630935177126,20128,219392,135795
1630935177136,20123,219403,135793
1630935177146,20128,219432,135805
1630935177156,20132,219439,135801
1630935177166,20130,219418,135811
1630935177176,20128,219428,135767
1630935177186,20120,219390,135707
1630935177196,20100,219310,135670
1630935177206,20084,219287,135618
1630935177216,20075,219244,135601
1630935177226,20061,219201,135570
1630935177236,20038,219121,135515
1630935177246,20013,219087,135442
1630935177256,19977,218973,135348
1630935177266,19950,218949,135306
1630935177276,19933,218887,135268
1630935177286,19917,218919,135271
1630935177296,19922,218864,135250
1630935177306,19894,218807,135192
1630935177316,19903,218774,135192
1630935177326,19886,218838,135253
1630935177336,19969,219124,135567
1630935177346,19992,219196,135611
1630935177356,19960,219101,135501
1630935177366,19926,218998,135373
1630935177376,19888,218812,135183
1630935177386,19865,218721,135080
1630935177396,19847,218626,135008
1630935177406,19848,218567,134989
1630935177416,19884,218732,135142
1630935177426,19929,218897,135317
1630935177436,19949,219016,135399
1630935177446,19952,219021,135392
1630935177456,19950,219012,135384
1630935177466,19941,219002,135366
1630935177476,19948,218973,135318
1630935177486,19934,218921,135283
1630935177496,19914,218879,135169
1630935177506,19890,218774,135062
1630935177516,19870,218697,135009
1630935177526,19871,218753,135017
1630935177536,19882,218819,135055
1630935177546,19913,218855,135124
1630935177556,19917,218905,135160
1630935177566,19913,218895,135145
1630935177576,19902,218839,135081
1630935177586,19876,218756,134976
1630935177596,19835,218674,134905
1630935177606,19819,218585,134852
1630935177616,19805,218557,134796
1630935177626,19780,218487,134750
1630935177636,19758,218478,134686
1630935177646,19749,218411,134653
1630935177656,19745,218423,134656
1630935177666,19751,218448,134697
1630935177676,19760,218477,134737
1630935177686,19758,218466,134752
1630935177696,19765,218439,134755
1630935177706,19751,218423,134712
1630935177716,19752,218460,134758
1630935177726,19824,218737,135062
1630935177736,19828,218760,135047
1630935177746,19816,218733,135024
1630935177756,19820,218736,135027
1630935177766,19809,218730,134943
1630935177776,19783,218683,134908
1630935177786,19784,218624,134853
1630935177796,19790,218623,134850
1630935177806,19829,218705,134999
1630935177816,19879,218827,135110
1630935177826,19895,218858,135153
1630935177836,19904,218918,135172
1630935177846,19903,218866,135148
1630935177856,19904,218850,135120
1630935177866,19908,218883,135167
1630935177876,19917,218906,135171
1630935177886,19925,218881,135186
1630935177896,19932,218919,135179
1630935177906,19934,218920,135176
1630935177916,19955,218975,135209
1630935177926,19952,218992,135212
1630935177936,19944,218995,135207
1630935177946,19955,219002,135197
1630935177956,19957,218997,135168
1630935177966,19947,218944,135133
1630935177976,19937,218918,135098
1630935177986,19938,218916,135102
1630935177996,19927,218869,135073
1630935178006,19910,218807,135025
1630935178016,19887,218762,134941
1630935178026,19860,218687,134856
1630935178036,19853,218670,134836
1630935178046,19847,218643,134825
1630935178056,19850,218637,134813
1630935178066,19841,218599,134797
1630935178076,19829,218587,134748
1630935178086,19810,218526,134671
1630935178096,19790,218471,134614
1630935178106,19826,218561,134726
1630935178116,19912,218847,135027
1630935178126,19895,218784,134945
1630935178136,19890,218731,134941
1630935178146,19853,218617,134741
1630935178156,19842,218585,134700
1630935178166,19865,218614,134767
1630935178176,19875,218646,134789
1630935178186,19910,218751,134917
1630935178196,19970,218905,135094
1630935178206,19989,219011,135175
1630935178216,20016,219060,135210
1630935178226,20012,219011,135207
1630935178236,20023,219071,135250
1630935178246,20040,219076,135286
1630935178256,20034,219065,135241
1630935178266,20030,219037,135214
1630935178276,20011,219016,135164
1630935178286,20017,219003,135115
1630935178296,20002,218939,135057
1630935178306,19994,218943,135065
1630935178316,19995,218914,135014
1630935178326,19989,218894,134975
1630935178336,19973,218817,134927
1630935178346,19968,218847,134880
1630935178356,19952,218798,134836
1630935178366,19929,218709,134773
1630935178376,19906,218623,134674
1630935178386,19876,218518,134570
1630935178396,19843,218456,134460
1630935178406,19813,218347,134385
1630935178416,19813,218306,134366
1630935178426,19813,218342,134383
1630935178436,19825,218348,134428
1630935178446,19831,218371,134458
1630935178456,19844,218409,134464
1630935178466,19837,218399,134461
1630935178476,19830,218362,134432
1630935178486,19838,218401,134478
1630935178496,19924,218675,134762
1630935178506,19918,218641,134707
1630935178516,19923,218667,134769
1630935178526,19957,218809,134922
1630935178536,19975,218849,134935
1630935178546,19984,218852,134922
1630935178556,19973,218821,134902
1630935178566,19970,218813,134890
1630935178576,19999,218827,134932
1630935178586,20007,218791,134907
1630935178596,20007,218840,134919
1630935178606,20009,218838,134930
1630935178616,20005,218813,134878
1630935178626,20002,218806,134874
1630935178636,20001,218822,134868
1630935178646,20003,218790,134852
1630935178656,20005,218819,134826
1630935178666,20005,218781,134809
1630935178676,20004,218782,134785
1630935178686,20013,218801,134829
1630935178696,20023,218828,134837
1630935178706,20031,218841,134858
1630935178716,20040,218881,134858
1630935178726,20034,218836,134847
1630935178736,20032,218869,134832
1630935178746,20022,218860,134807
1630935178756,20029,218838,134817
1630935178766,20038,218833,134809
1630935178776,20032,218796,134798
1630935178786,20015,218739,134740
1630935178796,20000,218683,134713
1630935178806,19997,218653,134675
1630935178816,20011,218693,134724
1630935178826,20030,218755,134827
1630935178836,20040,218770,134826
1630935178846,20043,218772,134818
1630935178856,20037,218766,134814
1630935178866,20088,218985,135051
1630935178876,20129,219095,135116
1630935178886,20077,218906,134920
1630935178896,20032,218749,134724
1630935178906,19958,218542,134449
1630935178916,19918,218376,134282
1630935178926,19910,218346,134233
1630935178936,19930,218369,134294
1630935178946,19985,218557,134532
1630935178956,20086,218870,134849
1630935178966,20148,219124,135110
1630935178976,20178,219216,135207
1630935178986,20183,219260,135199
1630935178996,20180,219224,135166
1630935179006,20179,219182,135142
1630935179016,20183,219166,135137
1630935179026,20182,219159,135115
1630935179036,20169,219074,135014
1630935179046,20137,218994,134914
1630935179056,20119,218923,134864
1630935179066,20127,218955,134855
1630935179076,20127,219004,134925
1630935179086,20153,219059,134943
1630935179096,20163,219074,134960
1630935179106,20149,219045,134946
1630935179116,20155,219072,134950
1630935179126,20155,219032,134910
1630935179136,20145,218992,134853
1630935179146,20120,218910,134790
1630935179156,20101,218796,134700
1630935179166,20075,218726,134583
1630935179176,20040,218593,134427
1630935179186,20013,218458,134309
1630935179196,19991,218366,134222
1630935179206,19989,218381,134249
1630935179216,20017,218408,134323
1630935179226,20023,218514,134409
1630935179236,20041,218522,134401
1630935179246,20030,218506,134408
1630935179256,20034,218488,134382
1630935179266,20029,218491,134371
1630935179276,20056,218639,134552
1630935179286,20135,218886,134739
1630935179296,20075,218663,134511
1630935179306,20093,218773,134624
1630935179316,20111,218831,134670
1630935179326,20101,218740,134611
1630935179336,20095,218697,134544
1630935179346,20091,218644,134508
1630935179356,20122,218780,134649
1630935179366,20206,219005,134934
1630935179376,20234,219008,134942
1630935179386,20268,219037,134987
1630935179396,20284,219027,135002
1630935179406,20281,219016,134956
1630935179416,20279,218994,134966
1630935179426,20308,219058,135035
1630935179436,20318,219058,135058
1630935179446,20327,219100,135060
1630935179456,20323,219096,135068
1630935179466,20322,219103,135077
1630935179476,20327,219126,135096
1630935179486,20335,219137,135116
1630935179496,20340,219201,135158
1630935179506,20349,219200,135174
1630935179516,20340,219240,135151
1630935179526,20331,219180,135104
1630935179536,20309,219129,135050
1630935179546,20293,219089,135055
1630935179556,20294,219088,135066
1630935179566,20289,219115,135061
1630935179576,20277,219146,135071
1630935179586,20279,219135,135059
1630935179596,20279,219086,135053
1630935179606,20271,219080,135038
1630935179616,20266,219069,135015
1630935179626,20267,219069,134989
1630935179636,20265,219038,135023
1630935179646,20280,219063,135079
1630935179656,20332,219277,135282
1630935179666,20310,219195,135143
1630935179676,20264,219080,134993
1630935179686,20233,218974,134841
1630935179696,20201,218915,134746
1630935179706,20205,218903,134743
1630935179716,20244,218971,134852
1630935179726,20282,219041,134967
1630935179736,20327,219207,135137
1630935179746,20351,219309,135260
1630935179756,20370,219366,135292
1630935179766,20362,219382,135286
1630935179776,20363,219378,135295
1630935179786,20372,219412,135331
1630935179796,20391,219443,135352
1630935179806,20396,219446,135395
1630935179816,20396,219443,135370
1630935179826,20386,219400,135295
1630935179836,20375,219321,135236
1630935179846,20367,219311,135213
1630935179856,20368,219336,135218
1630935179866,20381,219376,135218
1630935179876,20382,219392,135232
1630935179886,20394,219386,135226
1630935179896,20385,219372,135180
1630935179906,20381,219319,135182
1630935179916,20371,219290,135144
1630935179926,20354,219282,135127
1630935179936,20350,219212,135068
1630935179946,20328,219159,134998
1630935179956,20305,219076,134918
1630935179966,20281,218955,134818
1630935179976,20264,218907,134762
1630935179986,20264,218896,134796
1630935179996,20274,218933,134846
1630935180006,20288,218985,134912
1630935180016,20289,218975,134929
1630935180026,20284,218970,134896
1630935180036,20265,218894,134800
1630935180046,20271,218895,134882
1630935180056,20357,219204,135173
1630935180066,20341,219133,135072
1630935180076,20334,219137,135098
1630935180086,20338,219194,135131
1630935180096,20359,219245,135187
1630935180106,20368,219253,135201
1630935180116,20374,219202,135171
1630935180126,20359,219154,135120
1630935180136,20375,219185,135144
1630935180146,20368,219106,135070
1630935180156,20352,219033,134977
1630935180166,20339,219033,134972
1630935180176,20337,219075,134975
1630935180186,20345,219124,135013
1630935180196,20360,219169,135044
1630935180206,20373,219183,135076
1630935180216,20363,219188,135048
1630935180226,20371,219150,135018
1630935180236,20349,219143,134986
1630935180246,20337,219104,134965
1630935180256,20343,219111,134968
1630935180266,20342,219121,134964
1630935180276,20342,219148,134975
1630935180286,20340,219110,134962
1630935180296,20326,219078,134916
1630935180306,20316,219033,134875
1630935180316,20307,219062,134857
1630935180326,20313,219018,134918
1630935180336,20324,219083,134915
1630935180346,20316,219039,134919
1630935180356,20307,219064,134898
1630935180366,20287,218990,134858
1630935180376,20279,218910,134810
1630935180386,20272,218868,134774
1630935180396,20273,218892,134769
1630935180406,20270,218890,134773
1630935180416,20272,218914,134805
1630935180426,20287,218937,134875
1630935180436,20310,219011,134964
1630935180446,20392,219300,135257
1630935180456,20392,219305,135233
1630935180466,20357,219196,135127
1630935180476,20311,219089,134921
1630935180486,20254,218874,134697
1630935180496,20239,218771,134612
1630935180506,20234,218753,134579
1630935180516,20256,218763,134630
1630935180526,20308,218923,134835
1630935180536,20364,219136,135043
1630935180546,20401,219345,135247
1630935180556,20434,219500,135347
1630935180566,20449,219486,135393
1630935180576,20458,219514,135395
1630935180586,20459,219498,135380
1630935180596,20449,219460,135344
1630935180606,20444,219466,135306
1630935180616,20430,219372,135235
1630935180626,20413,219342,135179
1630935180636,20397,219299,135127
1630935180646,20401,219322,135131
1630935180656,20408,219354,135159
1630935180666,20415,219363,135189
1630935180676,20419,219345,135214
1630935180686,20403,219320,135170
1630935180696,20404,219285,135132
1630935180706,20374,219229,135085
1630935180716,20369,219169,135033
1630935180726,20346,219104,134974
1630935180736,20334,219040,134916
1630935180746,20318,219002,134848
1630935180756,20296,218980,134817
1630935180766,20300,218945,134820
1630935180776,20293,218932,134835
1630935180786,20297,218913,134845
1630935180796,20297,218935,134864
1630935180806,20307,218935,134885
1630935180816,20301,218945,134902
1630935180826,20298,218947,134877
1630935180836,20284,218917,134866
1630935180846,20298,218999,134988
1630935180856,20417,219377,135363
1630935180866,20400,219321,135310
1630935180876,20423,219396,135396
1630935180886,20444,219486,135468
1630935180896,20423,219436,135411
1630935180906,20408,219367,135343
1630935180916,20391,219255,135218
1630935180926,20378,219223,135222
1630935180936,20422,219381,135358
1630935180946,20445,219396,135378
1630935180956,20452,219411,135420
1630935180966,20451,219444,135417
1630935180976,20443,219391,135367
1630935180986,20431,219374,135330
1630935180996,20436,219395,135339
1630935181006,20443,219416,135355
1630935181016,20434,219409,135355
1630935181026,20433,219428,135328
1630935181036,20439,219396,135319
1630935181046,20415,219387,135315
1630935181056,20431,219410,135326
1630935181066,20427,219430,135339
1630935181076,20428,219366,135317
1630935181086,20421,219370,135295
1630935181096,20406,219332,135282
1630935181106,20397,219317,135262
1630935181116,20398,219312,135296
1630935181126,20401,219356,135310
1630935181136,20396,219323,135265
1630935181146,20378,219227,135184
1630935181156,20337,219161,135069
1630935181166,20315,219044,134965
1630935181176,20292,218987,134901
1630935181186,20292,218954,134904
1630935181196,20299,219015,134996
1630935181206,20341,219090,135097
1630935181216,20362,219171,135182
1630935181226,20378,219232,135274
1630935181236,20464,219592,135648
1630935181246,20500,219660,135688
1630935181256,20476,219549,135588
1630935181266,20466,219552,135537
1630935181276,20435,219376,135382
1630935181286,20432,219350,135367
1630935181296,20451,219411,135412
1630935181306,20490,219514,135557
1630935181316,20568,219728,135815
1630935181326,20636,220007,136087
1630935181336,20671,220057,136179
1630935181346,20667,220165,136212
1630935181356,20672,220136,136201
1630935181366,20649,220068,136174
1630935181376,20661,220064,136160
1630935181386,20665,220094,136164
1630935181396,20663,220063,136145
1630935181406,20646,220036,136103
1630935181416,20633,219959,136010
1630935181426,20608,219930,135957
1630935181436,20599,219902,135937
1630935181446,20595,219835,135934
1630935181456,20579,219828,135880
1630935181466,20569,219761,135829
1630935181476,20535,219741,135766
1630935181486,20519,219667,135717
1630935181496,20496,219657,135657
1630935181506,20479,219529,135606
1630935181516,20466,219512,135539
1630935181526,20443,219459,135459
1630935181536,20420,219403,135423
1630935181546,20411,219396,135398
1630935181556,20412,219347,135352
1630935181566,20393,219300,135334
1630935181576,20390,219299,135348
1630935181586,20392,219324,135356
1630935181596,20392,219368,135370
1630935181606,20383,219310,135335
1630935181616,20369,219339,135322
1630935181626,20430,219542,135613
1630935181636,20429,219509,135535
1630935181646,20418,219469,135511
1630935181656,20454,219605,135639
1630935181666,20448,219608,135664
1630935181676,20461,219616,135654
1630935181686,20458,219571,135593
1630935181696,20452,219587,135625
1630935181706,20487,219713,135789
1630935181716,20563,219910,135959
1630935181726,20590,219962,136006
1630935181736,20594,219954,135973
1630935181746,20582,219866,135929
1630935181756,20555,219853,135863
1630935181766,20544,219871,135855
1630935181776,20544,219898,135891
1630935181786,20554,219921,135920
1630935181796,20544,219903,135859
1630935181806,20531,219853,135818
1630935181816,20508,219822,135747
1630935181826,20500,219767,135703
1630935181836,20488,219695,135659
1630935181846,20456,219650,135556
1630935181856,20442,219609,135520
1630935181866,20433,219585,135497
1630935181876,20428,219587,135504
1630935181886,20423,219560,135503
1630935181896,20420,219573,135500
1630935181906,20419,219541,135489
1630935181916,20422,219539,135493
1630935181926,20423,219514,135520
1630935181936,20434,219553,135527
1630935181946,20448,219556,135597
1630935181956,20470,219662,135691
1630935181966,20495,219747,135826
1630935181976,20534,219836,135939
1630935181986,20554,219927,136037
1630935181996,20574,219968,136140
1630935182006,20601,220019,136153
1630935182016,20637,220194,136382
1630935182026,20724,220490,136675
1630935182036,20654,220247,136365
1630935182046,20597,220100,136183
1630935182056,20554,219928,135991
1630935182066,20531,219874,135919
1630935182076,20566,219943,136032
1630935182086,20580,219997,136139
1630935182096,20657,220213,136391
1630935182106,20771,220581,136790
1630935182116,20822,220721,136938
1630935182126,20818,220746,136921
1630935182136,20786,220577,136765
1630935182146,20725,220504,136634
1630935182156,20708,220409,136539
1630935182166,20698,220387,136502
1630935182176,20695,220399,136458
1630935182186,20687,220333,136420
1630935182196,20672,220230,136339
1630935182206,20658,220208,136278
1630935182216,20640,220152,136208
1630935182226,20629,220098,136169
1630935182236,20619,220077,136158
1630935182246,20610,220064,136167
1630935182256,20603,220034,136148
1630935182266,20589,220022,136117
1630935182276,20585,219997,136112
1630935182286,20574,219996,136052
1630935182296,20569,219939,136056
1630935182306,20556,219909,136012
1630935182316,20541,219881,135980
1630935182326,20535,219830,135927
1630935182336,20520,219806,135923
1630935182346,20519,219772,135909
1630935182356,20528,219779,135908
1630935182366,20530,219801,135919
1630935182376,20524,219790,135907
1630935182386,20518,219819,135868
1630935182396,20505,219773,135870
1630935182406,20542,219920,136068
1630935182416,20588,220056,136156
1630935182426,20546,219927,136019
1630935182436,20562,219992,136115
1630935182446,20578,220053,136184
1630935182456,20590,220076,136176
1630935182466,20576,220031,136134
1630935182476,20573,220016,136131
1630935182486,20610,220092,136222
1630935182496,20673,220281,136435
1630935182506,20677,220289,136445
1630935182516,20673,220289,136392
1630935182526,20662,220218,136337
1630935182536,20630,220146,136251
1630935182546,20625,220158,136223
1630935182556,20627,220177,136237
1630935182566,20629,220207,136228
1630935182576,20628,220190,136215
1630935182586,20624,220171,136201
1630935182596,20617,220151,136172
1630935182606,20611,220106,136138
1630935182616,20603,220085,136123
1630935182626,20585,220042,136085
1630935182636,20577,220040,136048
1630935182646,20564,219977,135986
1630935182656,20557,219934,135969
1630935182666,20557,219929,135964
1630935182676,20547,219926,135979
1630935182686,20538,219919,135964
1630935182696,20537,219907,135955
1630935182706,20527,219849,135898
1630935182716,20510,219785,135848
1630935182726,20500,219781,135819
1630935182736,20498,219736,135798
1630935182746,20497,219732,135822
1630935182756,20497,219771,135830
1630935182766,20509,219769,135879
1630935182776,20511,219782,135859
1630935182786,20542,219918,136037
1630935182796,20587,220098,136183
1630935182806,20545,219865,135973
1630935182816,20519,219866,135913
1630935182826,20514,219789,135808
1630935182836,20503,219766,135801
1630935182846,20535,219816,135891
1630935182856,20558,219909,135982
1630935182866,20620,220127,136206
1630935182876,20697,220386,136468
1630935182886,20726,220452,136535
1630935182896,20706,220372,136464
1630935182906,20683,220337,136391
1630935182916,20665,220281,136329
1630935182926,20653,220218,136256
1630935182936,20638,220181,136194
1630935182946,20622,220128,136142
1630935182956,20617,220096,136092
1630935182966,20594,220018,136041
1630935182976,20586,219963,135956
1630935182986,20563,219913,135914
1630935182996,20541,219871,135873
1630935183006,20535,219876,135847
1630935183016,20523,219811,135816
1630935183026,20503,219770,135774
1630935183036,20488,219742,135730
1630935183046,20474,219747,135710
1630935183056,20474,219708,135684
1630935183066,20467,219673,135690
1630935183076,20461,219679,135670
1630935183086,20455,219601,135642
1630935183096,20450,219562,135594
1630935183106,20442,219529,135567
1630935183116,20433,219497,135582
1630935183126,20448,219580,135614
1630935183136,20440,219556,135611
1630935183146,20436,219605,135618
1630935183156,20453,219608,135629
1630935183166,20443,219620,135631
1630935183176,20439,219589,135611
1630935183186,20521,219889,135946
1630935183196,20504,219808,135783
1630935183206,20465,219728,135725
1630935183216,20491,219865,135857
1630935183226,20490,219869,135837
1630935183236,20505,219890,135873
1630935183246,20515,219908,135862
1630935183256,20515,219869,135836
1630935183266,20539,219954,135982
1630935183276,20588,220109,136132
1630935183286,20609,220107,136095
1630935183296,20599,220061,136061
1630935183306,20585,220017,136001
1630935183316,20566,219987,135958
1630935183326,20558,220006,135977
1630935183336,20557,220045,135982
1630935183346,20565,220017,135984
1630935183356,20561,220023,135947
1630935183366,20557,220030,135942
1630935183376,20557,220036,135962
1630935183386,20554,220004,135958
1630935183396,20544,219981,135929
1630935183406,20541,219968,135915
1630935183416,20537,219988,135902
1630935183426,20532,219942,135888
1630935183436,20527,219954,135933
1630935183446,20537,219996,135972
1630935183456,20550,220013,135981
1630935183466,20543,220027,136009
1630935183476,20545,219973,135990
1630935183486,20535,219936,135951
1630935183496,20532,219970,135940
1630935183506,20525,219948,135961
1630935183516,20534,219963,135966
1630935183526,20537,219974,135992
1630935183536,20541,219988,136011
1630935183546,20542,219990,136004
1630935183556,20547,220032,136071
1630935183566,20628,220372,136377
1630935183576,20591,220230,136197
1630935183586,20541,220047,136000
1630935183596,20502,219956,135833
1630935183606,20465,219817,135670
1630935183616,20484,219868,135745
1630935183626,20521,219985,135880
1630935183636,20613,220181,136170
1630935183646,20709,220532,136534
1630935183656,20775,220715,136720
1630935183666,20776,220744,136733
1630935183676,20751,220638,136636
1630935183686,20717,220535,136508
1630935183696,20686,220475,136435
1630935183706,20674,220423,136358
1630935183716,20665,220413,136344
1630935183726,20658,220345,136269
1630935183736,20637,220309,136207
1630935183746,20618,220220,136140
1630935183756,20600,220192,136123
1630935183766,20595,220152,136088
1630935183776,20579,220131,136068
1630935183786,20574,220130,136040
1630935183796,20572,220107,136016
1630935183806,20551,219993,135959
1630935183816,20537,219965,135889
1630935183826,20520,219979,135876
1630935183836,20515,219960,135861
1630935183846,20514,219933,135847
1630935183856,20509,219925,135848
1630935183866,20512,219894,135840
1630935183876,20511,219923,135856
1630935183886,20522,219943,135892
1630935183896,20534,219938,135921
1630935183906,20555,219964,135970
1630935183916,20562,220002,135983
1630935183926,20554,219954,135949
1630935183936,20546,219942,135906
1630935183946,20530,219906,135883
1630935183956,20533,219894,135882
1630935183966,20551,219979,135999
1630935183976,20609,220159,136154
1630935183986,20567,220057,136010
1630935183996,20591,220169,136171
1630935184006,20617,220255,136222
1630935184016,20605,220201,136155
1630935184026,20600,220120,136098
1630935184036,20599,220102,136064
1630935184046,20625,220204,136162
1630935184056,20681,220373,136346
1630935184066,20708,220437,136392
1630935184076,20720,220439,136395
1630935184086,20718,220417,136380
1630935184096,20711,220414,136352
1630935184106,20703,220389,136331
1630935184116,20690,220390,136344
1630935184126,20696,220423,136359
1630935184136,20682,220380,136336
1630935184146,20668,220374,136295
1630935184156,20666,220287,136252
1630935184166,20657,220273,136211
1630935184176,20643,220248,136177
1630935184186,20627,220206,136138
1630935184196,20615,220183,136095
1630935184206,20592,220123,136023
1630935184216,20581,220111,135999
1630935184226,20575,220067,135970
1630935184236,20565,220055,135953
1630935184246,20572,220062,135976
1630935184256,20575,220052,135961
1630935184266,20573,220032,135950
1630935184276,20570,219987,135899
1630935184286,20572,219975,135885
1630935184296,20558,219990,135920
1630935184306,20584,220007,135969
1630935184316,20600,220053,136052
1630935184326,20606,220090,136042
1630935184336,20601,220058,136039
1630935184346,20604,220072,136063
1630935184356,20610,220092,136071
1630935184366,20661,220372,136328
1630935184376,20674,220357,136282
1630935184386,20610,220130,136026
1630935184396,20590,220071,135973
1630935184406,20575,220019,135911
1630935184416,20607,220096,136003
1630935184426,20623,220164,136076
1630935184436,20651,220184,136127
1630935184446,20706,220403,136338
1630935184456,20769,220600,136503
1630935184466,20773,220623,136544
1630935184476,20774,220602,136538
1630935184486,20754,220520,136420
1630935184496,20727,220515,136368
1630935184506,20712,220414,136306
1630935184516,20703,220422,136285
1630935184526,20688,220327,136210
1630935184536,20665,220235,136130
1630935184546,20639,220149,136034
1630935184556,20620,220099,135987
1630935184566,20606,220051,135985
1630935184576,20608,220095,135949
1630935184586,20588,220031,135926
1630935184596,20578,220039,135913
1630935184606,20571,220034,135874
1630935184616,20559,219968,135870
1630935184626,20562,219982,135852
1630935184636,20563,219943,135836
1630935184646,20554,219952,135812
1630935184656,20553,219933,135782
1630935184666,20554,219908,135781
1630935184676,20550,219929,135788
1630935184686,20557,219914,135786
1630935184696,20568,219977,135853
1630935184706,20587,219985,135893
1630935184716,20592,220032,135913
1630935184726,20593,220033,135916
1630935184736,20579,219959,135897
1630935184746,20584,219940,135829
1630935184756,20600,219991,135951
1630935184766,20715,220440,136320
1630935184776,20634,220170,136032
1630935184786,20628,220194,136069
1630935184796,20630,220196,136050
1630935184806,20621,220167,136030
1630935184816,20621,220157,135994
1630935184826,20630,220129,136018
1630935184836,20652,220164,136076
1630935184846,20712,220405,136322
1630935184856,20754,220481,136394
1630935184866,20749,220428,136282
1630935184876,20725,220363,136220
1630935184886,20700,220257,136113
1630935184896,20673,220225,136103
1630935184906,20687,220280,136155
1630935184916,20684,220286,136180
1630935184926,20698,220236,136147
1630935184936,20671,220231,136126
1630935184946,20667,220163,136053
1630935184956,20638,220165,136004
1630935184966,20627,220109,135956
1630935184976,20612,220098,135922
1630935184986,20605,220074,135894
1630935184996,20595,220054,135842
1630935185006,20581,219986,135810
1630935185016,20566,219937,135792
1630935185026,20555,219925,135749
1630935185036,20550,219920,135763
1630935185046,20551,219954,135778
1630935185056,20555,219931,135791
1630935185066,20560,219927,135776
1630935185076,20560,219877,135719
1630935185086,20536,219831,135677
1630935185096,20540,219776,135657
1630935185106,20545,219812,135696
1630935185116,20569,219907,135769
1630935185126,20579,219892,135825
1630935185136,20588,219979,135834
1630935185146,20610,220014,135961
1630935185156,20654,220218,136086
1630935185166,20639,220150,136032
1630935185176,20632,220113,135980
1630935185186,20602,220018,135857
1630935185196,20590,219949,135787
1630935185206,20599,219922,135795
1630935185216,20616,219971,135843
1630935185226,20662,220118,135998
1630935185236,20708,220327,136181
1630935185246,20746,220408,136281
1630935185256,20729,220372,136255
1630935185266,20730,220427,136280
1630935185276,20737,220414,136251
1630935185286,20728,220344,136204
1630935185296,20715,220273,136153
1630935185306,20692,220203,136091
1630935185316,20678,220168,136023
1630935185326,20651,220059,135950
1630935185336,20639,220043,135900
1630935185346,20622,220046,135870
1630935185356,20617,219988,135849
1630935185366,20606,219951,135809
1630935185376,20593,219939,135793
1630935185386,20569,219882,135735
1630935185396,20580,219880,135716
1630935185406,20577,219885,135737
1630935185416,20575,219927,135780
1630935185426,20581,219909,135777
1630935185436,20587,219919,135786
1630935185446,20579,219896,135782
1630935185456,20580,219885,135735
1630935185466,20578,219886,135740
1630935185476,20578,219867,135743
1630935185486,20585,219882,135768
1630935185496,20592,219912,135810
1630935185506,20602,219951,135858
1630935185516,20606,219964,135847
1630935185526,20599,219928,135792
1630935185536,20583,219878,135751
1630935185546,20626,220046,135990
1630935185556,20680,220197,136049
1630935185566,20615,219969,135846
1630935185576,20618,220061,135949
1630935185586,20642,220120,136015
1630935185596,20654,220156,136039
1630935185606,20650,220104,135988
1630935185616,20632,220055,135919
1630935185626,20640,220106,135963
1630935185636,20675,220192,136038
1630935185646,20674,220171,135992
1630935185656,20666,220156,135968
1630935185666,20662,220103,135959
1630935185676,20652,220078,135903
1630935185686,20650,220043,135889
1630935185696,20639,220075,135893
1630935185706,20643,220046,135922
1630935185716,20631,220060,135929
1630935185726,20628,220056,135925
1630935185736,20627,220032,135895
1630935185746,20605,220025,135892
1630935185756,20601,220033,135862
1630935185766,20611,220019,135864
1630935185776,20599,219978,135835
1630935185786,20584,219974,135790
1630935185796,20575,219907,135750
1630935185806,20565,219926,135733
1630935185816,20563,219940,135716
1630935185826,20560,219912,135719
1630935185836,20559,219906,135697
1630935185846,20550,219858,135647
1630935185856,20546,219845,135637
1630935185866,20545,219854,135640
1630935185876,20559,219884,135671
1630935185886,20585,219885,135739
1630935185896,20579,219874,135718
1630935185906,20554,219915,135698
1630935185916,20564,219908,135666
1630935185926,20575,219925,135756
1630935185936,20642,220201,136033
1630935185946,20630,220100,135916
1630935185956,20608,220044,135828
1630935185966,20602,219995,135843
1630935185976,20607,220046,135801
1630935185986,20645,220156,135957
1630935185996,20661,220183,135957
1630935186006,20677,220226,136040
1630935186016,20728,220416,136234
1630935186026,20761,220527,136332
1630935186036,20780,220531,136366
1630935186046,20786,220528,136343
1630935186056,20750,220467,136263
1630935186066,20739,220381,136167
1630935186076,20704,220253,136089
1630935186086,20670,220205,136024
1630935186096,20652,220147,136007
1630935186106,20641,220133,135938
1630935186116,20619,220080,135880
1630935186126,20598,220028,135822
1630935186136,20594,220014,135818
1630935186146,20588,219988,135806
1630935186156,20584,219984,135803
1630935186166,20569,219905,135736
1630935186176,20547,219890,135662
1630935186186,20535,219810,135629
1630935186196,20529,219838,135633
1630935186206,20520,219839,135645
1630935186216,20538,219864,135659
1630935186226,20548,219879,135714
1630935186236,20545,219866,135682
1630935186246,20542,219852,135656
1630935186256,20540,219824,135644
1630935186266,20540,219816,135653
1630935186276,20537,219812,135644
1630935186286,20536,219808,135632
1630935186296,20534,219824,135663
1630935186306,20543,219851,135674
1630935186316,20547,219837,135681
1630935186326,20621,220147,136036
1630935186336,20671,220303,136130
1630935186346,20640,220166,135990
1630935186356,20649,220286,136095
1630935186366,20665,220316,136155
1630935186376,20660,220301,136136
1630935186386,20630,220220,136018
1630935186396,20613,220110,135926
1630935186406,20620,220102,135964
1630935186416,20683,220330,136161
1630935186426,20714,220352,136202
1630935186436,20697,220272,136121
1630935186446,20668,220202,136044
1630935186456,20632,220109,135951
1630935186466,20615,220128,135931
1630935186476,20614,220138,135972
1630935186486,20615,220125,135979
1630935186496,20602,220123,135967
1630935186506,20590,220114,135944
1630935186516,20581,220063,135925
1630935186526,20588,220056,135918
1630935186536,20563,220093,135892
1630935186546,20562,220021,135867
1630935186556,20553,219996,135826
1630935186566,20546,220017,135792
1630935186576,20536,219958,135813
1630935186586,20543,219976,135819
1630935186596,20551,219995,135869
1630935186606,20554,220022,135860
1630935186616,20549,220002,135854
1630935186626,20539,219984,135815
1630935186636,20524,219922,135724
1630935186646,20515,219886,135719
1630935186656,20514,219893,135760
1630935186666,20532,219954,135800
1630935186676,20528,219969,135821
1630935186686,20546,219968,135813
1630935186696,20539,219964,135806
1630935186706,20542,219999,135855
1630935186716,20604,220211,136120
1630935186726,20680,220461,136375
1630935186736,20630,220244,136125
1630935186746,20577,220084,135923
1630935186756,20524,219930,135721
1630935186766,20502,219877,135641
1630935186776,20521,219909,135701
1630935186786,20538,219919,135737
1630935186796,20584,220101,135937
1630935186806,20650,220306,136159
1630935186816,20684,220400,136295
1630935186826,20691,220392,136298
1630935186836,20657,220320,136249
1630935186846,20641,220267,136177
1630935186856,20626,220183,136130
1630935186866,20605,220157,136083
1630935186876,20602,220192,136072
1630935186886,20587,220124,136022
1630935186896,20565,220027,135986
1630935186906,20538,219970,135908
1630935186916,20519,219947,135860
1630935186926,20504,219904,135820
1630935186936,20490,219899,135778
1630935186946,20471,219831,135734
1630935186956,20460,219802,135685
1630935186966,20456,219798,135680
1630935186976,20439,219780,135679
1630935186986,20442,219781,135668
1630935186996,20441,219791,135681
1630935187006,20448,219771,135675
1630935187016,20451,219753,135682
1630935187026,20460,219775,135693
1630935187036,20451,219761,135695
1630935187046,20469,219790,135704
1630935187056,20458,219745,135720
1630935187066,20467,219797,135740
1630935187076,20476,219836,135785
1630935187086,20489,219896,135856
1630935187096,20498,219895,135878
1630935187106,20498,219889,135862
1630935187116,20496,219898,135869
1630935187126,20483,219852,135805
1630935187136,20489,219899,135867
1630935187146,20547,220098,136047
1630935187156,20495,219847,135818
1630935187166,20480,219873,135811
1630935187176,20455,219913,135771
1630935187186,20432,219885,135728
1630935187196,20429,219806,135673
1630935187206,20413,219727,135609
1630935187216,20422,219722,135621
1630935187226,20458,219839,135754
1630935187236,20483,219837,135828
1630935187246,20479,219822,135794
1630935187256,20463,219810,135772
1630935187266,20438,219735,135678
1630935187276,20415,219736,135660
1630935187286,20419,219735,135709
1630935187296,20426,219795,135784
1630935187306,20442,219869,135828
1630935187316,20442,219881,135864
1630935187326,20444,219852,135870
1630935187336,20438,219878,135848
1630935187346,20437,219866,135832
1630935187356,20421,219814,135779
1630935187366,20411,219776,135728
1630935187376,20399,219746,135695
1630935187386,20382,219667,135638
1630935187396,20374,219664,135595
1630935187406,20375,219694,135612
1630935187416,20375,219667,135591
1630935187426,20375,219689,135596
1630935187436,20366,219648,135560
1630935187446,20350,219591,135497
1630935187456,20343,219567,135482
1630935187466,20351,219547,135485
1630935187476,20352,219553,135502
1630935187486,20357,219564,135496
1630935187496,20349,219546,135505
1630935187506,20359,219542,135500
1630935187516,20355,219589,135526
1630935187526,20376,219637,135620
1630935187536,20465,220004,135998
1630935187546,20475,219944,135922
1630935187556,20412,219791,135714
1630935187566,20365,219627,135519
1630935187576,20321,219487,135392
1630935187586,20325,219488,135427
1630935187596,20336,219507,135476
1630935187606,20366,219577,135582
1630935187616,20421,219752,135810
1630935187626,20462,219857,135933
1630935187636,20463,219871,135980
1630935187646,20460,219878,136007
1630935187656,20462,219953,136054
1630935187666,20482,220011,136147
1630935187676,20503,220100,136242
1630935187686,20523,220104,136285
1630935187696,20523,220122,136283
1630935187706,20501,220073,136279
1630935187716,20484,220070,136267
1630935187726,20479,220097,136223
1630935187736,20475,220036,136237
1630935187746,20477,220046,136234
1630935187756,20475,220078,136221
1630935187766,20456,220034,136181
1630935187776,20435,219935,136119
1630935187786,20417,219912,136029
1630935187796,20401,219870,135982
1630935187806,20390,219853,135945
1630935187816,20375,219816,135920
1630935187826,20358,219786,135915
1630935187836,20351,219785,135867
1630935187846,20336,219680,135791
1630935187856,20292,219591,135700
1630935187866,20273,219564,135612
1630935187876,20253,219509,135577
1630935187886,20247,219485,135539
1630935187896,20234,219444,135482
1630935187906,20209,219396,135415
1630935187916,20193,219344,135346
1630935187926,20169,219270,135289
1630935187936,20154,219286,135258
1630935187946,20155,219341,135311
1630935187956,20187,219430,135515
1630935187966,20343,219975,136155
1630935187976,20408,220124,136337
1630935187986,20405,220120,136336
1630935187996,20376,220065,136289
1630935188006,20354,219934,136168
1630935188016,20343,219976,136209
1630935188026,20346,219974,136233
1630935188036,20346,219982,136269
1630935188046,20389,220153,136423
1630935188056,20416,220211,136510
1630935188066,20419,220204,136504
1630935188076,20413,220213,136522
1630935188086,20399,220170,136479
1630935188096,20385,220152,136492
1630935188106,20383,220202,136524
1630935188116,20383,220260,136545
1630935188126,20381,220249,136540
1630935188136,20368,220243,136516
1630935188146,20339,220114,136386
1630935188156,20300,220039,136241
1630935188166,20279,219936,136131
1630935188176,20232,219805,135996
1630935188186,20204,219788,135927
1630935188196,20182,219708,135821
1630935188206,20167,219653,135758
1630935188216,20150,219587,135706
1630935188226,20105,219486,135545
1630935188236,20060,219350,135371
1630935188246,20010,219195,135213
1630935188256,19993,219156,135157
1630935188266,19996,219165,135215
1630935188276,20014,219247,135277
1630935188286,20024,219224,135279
1630935188296,20013,219166,135232
1630935188306,19988,219090,135126
1630935188316,19964,219081,135059
1630935188326,19963,219039,135092
1630935188336,20079,219456,135633
1630935188346,20288,220161,136361
1630935188356,20307,220154,136391
1630935188366,20255,219981,136185
1630935188376,20129,219579,135705
1630935188386,20049,219395,135510
1630935188396,20034,219279,135436
1630935188406,20017,219209,135401
1630935188416,20060,219385,135594
1630935188426,20160,219751,136002
1630935188436,20265,220038,136380
1630935188446,20328,220211,136584
1630935188456,20311,220115,136514
1630935188466,20272,220078,136401
1630935188476,20237,220034,136345
1630935188486,20243,219996,136321
1630935188496,20230,219949,136310
1630935188506,20234,219960,136312
1630935188516,20226,219941,136266
1630935188526,20198,219894,136220
1630935188536,20196,219862,136145
1630935188546,20171,219812,136101
1630935188556,20155,219760,135995
1630935188566,20129,219651,135917
1630935188576,20104,219589,135821
1630935188586,20094,219561,135773
1630935188596,20084,219544,135737
1630935188606,20074,219565,135726
1630935188616,20057,219460,135653
1630935188626,20049,219405,135567
1630935188636,20020,219331,135474
1630935188646,19995,219214,135346
1630935188656,19966,219144,135300
1630935188666,19960,219176,135299
1630935188676,19982,219220,135368
1630935188686,20012,219298,135453
1630935188696,20022,219280,135474
1630935188706,20015,219278,135470
1630935188716,20018,219266,135456
1630935188726,20068,219462,135705
1630935188736,20110,219605,135842
1630935188746,20126,219668,135918
1630935188756,20149,219728,136013
1630935188766,20128,219631,135959
1630935188776,20095,219547,135845
1630935188786,20068,219489,135750
1630935188796,20055,219467,135769
1630935188806,20092,219545,135861
1630935188816,20118,219635,135938
1630935188826,20112,219593,135917
1630935188836,20103,219568,135907
1630935188846,20088,219541,135861
1630935188856,20073,219485,135824
1630935188866,20063,219493,135828
1630935188876,20064,219478,135838
1630935188886,20077,219566,135871
1630935188896,20072,219577,135876
1630935188906,20075,219550,135854
1630935188916,20072,219561,135863
1630935188926,20074,219589,135845
1630935188936,20064,219527,135802
1630935188946,20059,219451,135763
1630935188956,20054,219416,135718
1630935188966,20040,219391,135682
1630935188976,20025,219401,135678
1630935188986,20033,219399,135608
1630935188996,20005,219342,135556
1630935189006,19995,219229,135478
1630935189016,19970,219179,135409
1630935189026,19955,219135,135333
1630935189036,19947,219100,135294
1630935189046,19950,219135,135326
1630935189056,19957,219160,135355
1630935189066,19951,219150,135324
1630935189076,19937,219105,135262
1630935189086,19926,219065,135234
1630935189096,19920,219073,135205
1630935189106,19930,219090,135252
1630935189116,20051,219470,135800
1630935189126,20156,219745,136056
1630935189136,20100,219552,135843
1630935189146,20052,219445,135694
1630935189156,19977,219206,135416
1630935189166,19954,219127,135374
1630935189176,19936,219089,135281
1630935189186,19936,219106,135338
1630935189196,20021,219321,135647
1630935189206,20122,219610,135980
1630935189216,20176,219802,136179
1630935189226,20194,219879,136283
1630935189236,20189,219885,136277
1630935189246,20193,219895,136319
1630935189256,20196,219879,136304
1630935189266,20195,219914,136290
1630935189276,20193,219829,136247
1630935189286,20165,219759,136133
1630935189296,20140,219678,136008
1630935189306,20103,219536,135855
1630935189316,20087,219485,135803
1630935189326,20098,219496,135799
1630935189336,20098,219572,135873
1630935189346,20113,219595,135922
1630935189356,20121,219624,135924
1630935189366,20117,219603,135910
1630935189376,20104,219497,135816
1630935189386,20088,219431,135756
1630935189396,20087,219429,135747
1630935189406,20100,219417,135791
1630935189416,20118,219496,135857
1630935189426,20136,219528,135912
1630935189436,20149,219593,135954
1630935189446,20152,219616,135969
1630935189456,20149,219569,135934
1630935189466,20125,219588,135928
1630935189476,20136,219571,135925
1630935189486,20132,219510,135874
1630935189496,20130,219520,135900
1630935189506,20175,219681,136105
1630935189516,20181,219658,136067
1630935189526,20170,219648,136063
1630935189536,20174,219720,136116
1630935189546,20172,219698,136109
1630935189556,20187,219720,136142
1630935189566,20214,219765,136191
1630935189576,20237,219822,136289
1630935189586,20308,220024,136516
1630935189596,20370,220196,136690
1630935189606,20376,220226,136736
1630935189616,20378,220175,136675
1630935189626,20347,220115,136581
1630935189636,20321,220068,136525
1630935189646,20313,220097,136507
1630935189656,20310,220059,136476
1630935189666,20297,220067,136423
1630935189676,20277,219925,136334
1630935189686,20263,219882,136264
1630935189696,20254,219883,136218
1630935189706,20236,219825,136158
1630935189716,20226,219808,136103
1630935189726,20212,219770,136057
1630935189736,20198,219718,135993
1630935189746,20177,219651,135934
1630935189756,20151,219560,135799
1630935189766,20121,219500,135656
1630935189776,20095,219416,135574
1630935189786,20086,219369,135560
1630935189796,20089,219371,135555
1630935189806,20104,219408,135560
1630935189816,20109,219405,135587
1630935189826,20116,219383,135580
1630935189836,20106,219387,135548
1630935189846,20100,219327,135505
1630935189856,20095,219302,135488
1630935189866,20098,219316,135497
1630935189876,20118,219368,135592
1630935189886,20270,219903,136217
1630935189896,20303,219984,136238
1630935189906,20264,219817,136073
1630935189916,20236,219672,135914
1630935189926,20174,219499,135673
1630935189936,20175,219515,135702
1630935189946,20191,219541,135727
1630935189956,20245,219683,135968
1630935189966,20377,220143,136448
1630935189976,20479,220395,136746
1630935189986,20518,220471,136827
1630935189996,20516,220460,136817
1630935190006,20494,220398,136713
1630935190016,20471,220300,136631
1630935190026,20451,220294,136535
1630935190036,20448,220258,136547
1630935190046,20452,220259,136531
1630935190056,20446,220256,136512
1630935190066,20435,220228,136475
1630935190076,20419,220122,136380
1630935190086,20388,220048,136272
1630935190096,20370,219961,136187
1630935190106,20359,219904,136101
1630935190116,20350,219825,136066
1630935190126,20323,219797,135992
1630935190136,20308,219703,135932
1630935190146,20297,219658,135819
1630935190156,20261,219562,135718
1630935190166,20245,219513,135628
1630935190176,20230,219438,135581
1630935190186,20226,219382,135565
1630935190196,20230,219435,135566
1630935190206,20240,219408,135580
1630935190216,20246,219424,135597
1630935190226,20237,219389,135549
1630935190236,20236,219391,135543
1630935190246,20253,219415,135581
1630935190256,20257,219491,135660
1630935190266,20287,219559,135766
1630935190276,20320,219684,135884
1630935190286,20382,219814,136038
1630935190296,20379,219842,136052
1630935190306,20382,219824,136035
1630935190316,20406,219852,136064
1630935190326,20427,219927,136152
1630935190336,20449,219972,136211
1630935190346,20495,220138,136390
1630935190356,20568,220330,136634
1630935190366,20626,220482,136799
1630935190376,20676,220550,136885
1630935190386,20679,220500,136865
1630935190396,20659,220455,136798
1630935190406,20640,220448,136755
1630935190416,20649,220423,136731
1630935190426,20637,220436,136700
1630935190436,20619,220374,136645
1630935190446,20593,220322,136540
1630935190456,20570,220254,136447
1630935190466,20555,220212,136380
1630935190476,20529,220135,136308
1630935190486,20511,220044,136219
1630935190496,20491,219997,136132
1630935190506,20470,219905,136017
1630935190516,20444,219786,135908
1630935190526,20406,219694,135749
1630935190536,20372,219579,135629
1630935190546,20357,219543,135614
1630935190556,20370,219556,135666
1630935190566,20389,219602,135736
1630935190576,20404,219635,135751
1630935190586,20394,219613,135698
1630935190596,20375,219503,135624
1630935190606,20363,219505,135530
1630935190616,20353,219491,135551
1630935190626,20422,219713,135849
1630935190636,20448,219838,135871
1630935190646,20428,219717,135782
1630935190656,20429,219716,135766
1630935190666,20412,219619,135675
1630935190676,20425,219652,135712
1630935190686,20443,219684,135738
1630935190696,20474,219732,135877
1630935190706,20574,220073,136216
1630935190716,20692,220386,136606
1630935190726,20768,220576,136819
1630935190736,20791,220696,136919
1630935190746,20777,220669,136897
1630935190756,20776,220666,136868
1630935190766,20779,220664,136871
1630935190776,20776,220667,136880
1630935190786,20782,220650,136829
1630935190796,20766,220639,136796
1630935190806,20739,220547,136676
1630935190816,20706,220461,136565
1630935190826,20682,220370,136463
1630935190836,20671,220313,136399
1630935190846,20654,220260,136354
1630935190856,20641,220197,136298
1630935190866,20619,220158,136222
1630935190876,20611,220120,136161
1630935190886,20597,220057,136146
1630935190896,20596,220032,136093
1630935190906,20583,219981,136055
1630935190916,20584,219934,136020
1630935190926,20566,219908,135935
1630935190936,20562,219866,135980
1630935190946,20565,219895,135931
1630935190956,20571,219886,135932
1630935190966,20564,219870,135936
1630935190976,20567,219868,135901
1630935190986,20567,219847,135922
1630935190996,20586,219897,136009
1630935191006,20671,220181,136357
1630935191016,20729,220358,136491
1630935191026,20737,220401,136524
1630935191036,20765,220488,136612
1630935191046,20778,220463,136651
1630935191056,20806,220517,136718
1630935191066,20831,220552,136776
1630935191076,20860,220646,136896
1630935191086,20946,220884,137184
1630935191096,21020,221127,137389
1630935191106,21051,221178,137426
1630935191116,21061,221193,137464
1630935191126,21060,221147,137478
1630935191136,21065,221201,137493
1630935191146,21083,221215,137567
1630935191156,21096,221278,137611
1630935191166,21102,221292,137614
1630935191176,21094,221278,137615
1630935191186,21080,221231,137558
1630935191196,21058,221236,137487
1630935191206,21034,221120,137390
1630935191216,21010,221032,137281
1630935191226,20983,220970,137172
1630935191236,20954,220889,137044
1630935191246,20918,220805,136953
1630935191256,20893,220710,136846
1630935191266,20848,220532,136662
1630935191276,20800,220393,136526
1630935191286,20775,220354,136393
1630935191296,20754,220264,136360
1630935191306,20754,220256,136364
1630935191316,20756,220259,136373
1630935191326,20755,220232,136363
1630935191336,20745,220231,136316
1630935191346,20729,220162,136272
1630935191356,20716,220076,136192
1630935191366,20752,220255,136396
1630935191376,20855,220595,136771
1630935191386,20863,220594,136726
1630935191396,20874,220590,136757
1630935191406,20882,220568,136730
1630935191416,20889,220590,136765
1630935191426,20961,220753,137013
1630935191436,21020,220951,137261
1630935191446,21144,221290,137699
1630935191456,21310,221777,138286
1630935191466,21407,222100,138621
1630935191476,21462,222245,138793
1630935191486,21491,222319,138883
1630935191496,21509,222359,138933
1630935191506,21520,222349,138990
1630935191516,21523,222380,139013
1630935191526,21508,222319,138933
1630935191536,21475,222237,138814
1630935191546,21442,222110,138668
1630935191556,21398,222024,138538
1630935191566,21386,221938,138437
1630935191576,21358,221861,138350
1630935191586,21325,221788,138237
1630935191596,21282,221612,138083
1630935191606,21235,221528,137946
1630935191616,21201,221419,137808
1630935191626,21168,221308,137683
1630935191636,21141,221250,137591
1630935191646,21117,221176,137521
1630935191656,21111,221154,137467
1630935191666,21109,221119,137448
1630935191676,21113,221080,137445
1630935191686,21101,221017,137437
1630935191696,21093,221017,137370
1630935191706,21077,220988,137317
1630935191716,21062,220925,137269
1630935191726,21051,220889,137248
1630935191736,21114,221109,137558
1630935191746,21207,221355,137795
1630935191756,21194,221318,137725
1630935191766,21226,221412,137881
1630935191776,21256,221510,137960
1630935191786,21265,221468,137929
1630935191796,21277,221488,137931
1630935191806,21289,221487,137985
1630935191816,21343,221658,138186
1630935191826,21425,221908,138416
1630935191836,21449,221922,138432
1630935191846,21438,221913,138389
1630935191856,21422,221862,138337
1630935191866,21413,221834,138359
1630935191876,21426,221896,138381
1630935191886,21444,221904,138422
1630935191896,21435,221895,138394
1630935191906,21414,221854,138329
1630935191916,21392,221754,138230
1630935191926,21366,221725,138164
1630935191936,21348,221681,138119
1630935191946,21340,221652,138059
1630935191956,21330,221619,138067
1630935191966,21329,221641,138062
1630935191976,21323,221623,138029
1630935191986,21301,221536,137943
1630935191996,21262,221461,137833
1630935192006,21232,221351,137714
1630935192016,21194,221264,137611
1630935192026,21171,221162,137524
1630935192036,21123,221104,137410
1630935192046,21129,221066,137378
1630935192056,21128,221055,137366
1630935192066,21134,221028,137396
1630935192076,21139,220991,137396
1630935192086,21116,221004,137327
1630935192096,21105,220899,137264
1630935192106,21151,221142,137513
1630935192116,21253,221452,137829
1630935192126,21247,221392,137736
1630935192136,21234,221336,137713
1630935192146,21227,221260,137621
1630935192156,21219,221230,137618
1630935192166,21270,221364,137751
1630935192176,21311,221430,137847
1630935192186,21380,221628,138085
1630935192196,21477,221969,138459
1630935192206,21547,222143,138666
1630935192216,21576,222252,138757
1630935192226,21563,222235,138755
1630935192236,21563,222183,138727
1630935192246,21556,222197,138722
1630935192256,21557,222150,138694
1630935192266,21545,222127,138637
1630935192276,21521,222061,138550
1630935192286,21492,221987,138459
1630935192296,21464,221923,138415
1630935192306,21462,221903,138387
1630935192316,21457,221881,138374
1630935192326,21443,221826,138297
1630935192336,21418,221772,138210
1630935192346,21388,221694,138133
1630935192356,21360,221652,138080
1630935192366,21361,221602,138045
1630935192376,21335,221571,137990
1630935192386,21324,221505,137859
1630935192396,21284,221382,137787
1630935192406,21254,221299,137668
1630935192416,21230,221185,137564
1630935192426,21208,221127,137514
1630935192436,21198,221110,137466
1630935192446,21178,221044,137379
1630935192456,21134,220928,137219
1630935192466,21057,220747,136964
1630935192476,20980,220588,136763
1630935192486,20991,220594,136810
1630935192496,21068,220905,137127
1630935192506,21084,220897,137098
1630935192516,21093,220966,137155
1630935192526,21100,220942,137182
1630935192536,21104,220944,137157
1630935192546,21130,220971,137212
1630935192556,21146,221033,137260
1630935192566,21183,221101,137376
1630935192576,21261,221370,137672
1630935192586,21305,221451,137773
1630935192596,21314,221436,137776
1630935192606,21313,221448,137763
1630935192616,21298,221400,137710
1630935192626,21291,221338,137715
1630935192636,21284,221344,137665
1630935192646,21279,221291,137669
1630935192656,21272,221317,137663
1630935192666,21269,221310,137664
1630935192676,21261,221333,137667
1630935192686,21258,221326,137674
1630935192696,21250,221284,137635
1630935192706,21243,221293,137590
1630935192716,21219,221234,137517
1630935192726,21220,221165,137494
1630935192736,21196,221130,137437
1630935192746,21180,221079,137333
1630935192756,21152,220991,137272
1630935192766,21142,220950,137226
1630935192776,21141,220969,137248
1630935192786,21156,221009,137314
1630935192796,21168,221061,137360
1630935192806,21166,221034,137367
1630935192816,21162,221037,137332
1630935192826,21152,220988,137297
1630935192836,21136,220956,137253
1630935192846,21179,221058,137418
1630935192856,21230,221233,137557
1630935192866,21201,221142,137484
1630935192876,21202,221154,137421
1630935192886,21183,221034,137342
1630935192896,21202,221135,137450
1630935192906,21252,221253,137595
1630935192916,21304,221394,137746
1630935192926,21365,221530,137949
1630935192936,21431,221727,138142
1630935192946,21458,221857,138251
1630935192956,21451,221875,138245
1630935192966,21439,221830,138180
1630935192976,21433,221779,138167
1630935192986,21427,221779,138150
1630935192996,21432,221780,138142
1630935193006,21421,221721,138124
1630935193016,21406,221674,138031
1630935193026,21370,221587,137983
1630935193036,21334,221520,137897
1630935193046,21328,221481,137831
1630935193056,21309,221442,137773
1630935193066,21288,221383,137714
1630935193076,21264,221309,137616
1630935193086,21235,221221,137525
1630935193096,21207,221162,137443
1630935193106,21182,221109,137389
1630935193116,21171,221017,137348
1630935193126,21158,221045,137322
1630935193136,21156,221007,137331
1630935193146,21154,220971,137306
1630935193156,21147,220955,137261
1630935193166,21138,220914,137221
1630935193176,21119,220862,137181
1630935193186,21101,220835,137139
1630935193196,21089,220832,137090
1630935193206,21077,220753,137027
1630935193216,21044,220688,136927
1630935193226,21034,220706,136934
1630935193236,21123,220981,137281
1630935193246,21174,221101,137370
1630935193256,21163,221049,137342
1630935193266,21192,221152,137446
1630935193276,21194,221117,137416
1630935193286,21178,221084,137387
1630935193296,21183,221072,137364
1630935193306,21177,221055,137360
1630935193316,21242,221256,137581
1630935193326,21315,221466,137820
1630935193336,21338,221564,137888
1630935193346,21367,221622,137923
1630935193356,21369,221558,137918
1630935193366,21359,221549,137912
1630935193376,21357,221564,137931
1630935193386,21354,221533,137946
1630935193396,21356,221560,137949
1630935193406,21355,221571,137949
1630935193416,21355,221554,137954
1630935193426,21349,221513,137949
1630935193436,21347,221509,137925
1630935193446,21336,221476,137897
1630935193456,21310,221417,137829
1630935193466,21283,221353,137726
1630935193476,21255,221258,137598
1630935193486,21228,221221,137541
1630935193496,21196,221098,137409
1630935193506,21148,220984,137269
1630935193516,21101,220933,137159
1630935193526,21063,220776,136960
1630935193536,21034,220690,136917
1630935193546,21028,220669,136889
1630935193556,21043,220678,136968
1630935193566,21057,220759,136991
1630935193576,21052,220714,136977
1630935193586,21034,220655,136921
1630935193596,21036,220650,136966
1630935193606,21130,220981,137300
1630935193616,21144,221028,137309
1630935193626,21125,220916,137248
1630935193636,21119,220870,137177
1630935193646,21109,220799,137137
1630935193656,21148,220909,137249
1630935193666,21223,221095,137446
1630935193676,21297,221390,137736
1630935193686,21431,221727,138179
1630935193696,21502,221990,138420
1630935193706,21504,221984,138411
1630935193716,21485,221939,138316
1630935193726,21454,221889,138228
1630935193736,21434,221855,138176
1630935193746,21422,221806,138143
1630935193756,21402,221685,138072
1630935193766,21370,221651,137964
1630935193776,21319,221516,137827
1630935193786,21270,221397,137691
1630935193796,21232,221303,137605
1630935193806,21220,221250,137582
1630935193816,21197,221241,137554
1630935193826,21193,221209,137506
1630935193836,21173,221215,137484
1630935193846,21164,221162,137408
1630935193856,21116,221052,137341
1630935193866,21103,221001,137268
1630935193876,21082,220927,137213
1630935193886,21070,220884,137192
1630935193896,21071,220872,137222
1630935193906,21089,220919,137254
1630935193916,21099,220946,137317
1630935193926,21111,220947,137342
1630935193936,21114,220919,137340
1630935193946,21106,220912,137295
1630935193956,21089,220880,137235
1630935193966,21051,220788,137168
1630935193976,21063,220905,137276
1630935193986,21164,221194,137623
1630935193996,21169,221193,137591
1630935194006,21172,221280,137625
1630935194016,21210,221354,137762
1630935194026,21231,221395,137839
1630935194036,21247,221422,137861
1630935194046,21270,221499,137930
1630935194056,21300,221611,138053
1630935194066,21365,221795,138263
1630935194076,21402,221911,138346
1630935194086,21398,221881,138286
1630935194096,21378,221849,138238
1630935194106,21353,221779,138139
1630935194116,21339,221738,138086
1630935194126,21323,221684,138070
1630935194136,21320,221677,138031
1630935194146,21297,221581,138012
1630935194156,21283,221542,137942
1630935194166,21279,221525,137888
1630935194176,21247,221445,137860
1630935194186,21237,221431,137808
1630935194196,21208,221407,137767
1630935194206,21184,221333,137692
1630935194216,21150,221254,137610
1630935194226,21120,221175,137511
1630935194236,21091,221106,137446
1630935194246,21065,221038,137356
1630935194256,21051,220966,137290
1630935194266,21000,220853,137139
1630935194276,20962,220714,137014
1630935194286,20918,220605,136876
1630935194296,20903,220570,136844
1630935194306,20905,220586,136859
1630935194316,20904,220596,136900
1630935194326,20907,220555,136901
1630935194336,20883,220516,136814
1630935194346,20842,220483,136719
1630935194356,20877,220594,136912
1630935194366,20970,220863,137220
1630935194376,20966,220837,137178
1630935194386,20982,220872,137236
1630935194396,20978,220844,137205
1630935194406,20994,220856,137223
1630935194416,21049,221017,137404
1630935194426,21099,221148,137569
1630935194436,21174,221381,137826
1630935194446,21286,221742,138185
1630935194456,21327,221834,138263
1630935194466,21305,221793,138221
1630935194476,21278,221716,138087
1630935194486,21247,221626,137977
1630935194496,21227,221549,137925
1630935194506,21216,221565,137886
1630935194516,21210,221470,137842
1630935194526,21176,221401,137765
1630935194536,21139,221242,137643
1630935194546,21096,221165,137529
1630935194556,21056,221107,137429
1630935194566,21020,220974,137339
1630935194576,20994,220909,137265
1630935194586,20956,220821,137174
1630935194596,20926,220769,137103
1630935194606,20902,220691,137043
1630935194616,20875,220628,136963
1630935194626,20844,220551,136859
1630935194636,20817,220418,136794
1630935194646,20767,220332,136664
1630935194656,20752,220265,136588
1630935194666,20728,220208,136537
1630935194676,20723,220165,136530
1630935194686,20725,220228,136548
1630935194696,20720,220219,136578
1630935194706,20724,220233,136579
1630935194716,20713,220154,136551
1630935194726,20701,220115,136525
1630935194736,20718,220232,136653
1630935194746,20812,220524,137004
1630935194756,20834,220616,137031
1630935194766,20849,220665,137104
1630935194776,20882,220779,137212
1630935194786,20902,220793,137320
1630935194796,20937,220885,137370
1630935194806,20956,220894,137374
1630935194816,20982,220951,137511
1630935194826,21084,221308,137850
1630935194836,21153,221491,138031
1630935194846,21168,221490,138071
1630935194856,21151,221511,138016
1630935194866,21121,221408,137928
1630935194876,21102,221395,137900
1630935194886,21081,221362,137859
1630935194896,21069,221296,137800
1630935194906,21049,221210,137730
1630935194916,21026,221142,137630
1630935194926,20997,221055,137543
1630935194936,20967,220950,137455
1630935194946,20932,220917,137406
1630935194956,20925,220869,137365
1630935194966,20882,220837,137291
1630935194976,20855,220740,137229
1630935194986,20816,220683,137156
1630935194996,20791,220586,137030
1630935195006,20741,220445,136880
1630935195016,20684,220289,136713
1630935195026,20631,220139,136540
1630935195036,20594,220090,136471
1630935195046,20593,220106,136494
1630935195056,20605,220116,136539
1630935195066,20611,220126,136607
1630935195076,20610,220138,136588
1630935195086,20605,220071,136559
1630935195096,20586,220089,136525
1630935195106,20602,220112,136632
1630935195116,20684,220444,136959
1630935195126,20729,220461,137008
1630935195136,20731,220465,137038
1630935195146,20729,220515,137006
1630935195156,20719,220451,136975
1630935195166,20754,220549,137106
1630935195176,20784,220563,137180
1630935195186,20823,220715,137340
1630935195196,20924,221059,137700
1630935195206,21021,221373,137981
1630935195216,21065,221500,138141
1630935195226,21085,221605,138225
1630935195236,21082,221572,138246
1630935195246,21095,221589,138258
1630935195256,21116,221646,138342
1630935195266,21129,221629,138357
1630935195276,21122,221647,138343
1630935195286,21096,221600,138268
1630935195296,21074,221475,138197
1630935195306,21050,221462,138144
1630935195316,21017,221383,138102
1630935195326,20997,221378,138107
1630935195336,20963,221284,138049
1630935195346,20948,221227,137986
1630935195356,20918,221195,137925
1630935195366,20892,221121,137869
1630935195376,20863,221073,137794
1630935195386,20820,220931,137703
1630935195396,20773,220777,137521
1630935195406,20731,220672,137425
1630935195416,20722,220710,137406
1630935195426,20730,220704,137485
1630935195436,20744,220790,137593
1630935195446,20762,220834,137693
1630935195456,20796,220891,137751
1630935195466,20785,220878,137719
1630935195476,20750,220819,137630
1630935195486,20724,220724,137564
1630935195496,20776,220898,137876
1630935195506,20873,221252,138171
1630935195516,20850,221184,138099
1630935195526,20890,221347,138326
1630935195536,20953,221508,138487
1630935195546,20983,221564,138586
1630935195556,21054,221758,138777
1630935195566,21103,221852,138916
1630935195576,21172,222116,139225
1630935195586,21252,222372,139439
1630935195596,21271,222430,139440
1630935195606,21288,222466,139486
1630935195616,21322,222570,139620
1630935195626,21361,222612,139705
1630935195636,21383,222700,139746
1630935195646,21381,222660,139698
1630935195656,21377,222596,139629
1630935195666,21376,222591,139592
1630935195676,21369,222544,139602
1630935195686,21379,222564,139625
1630935195696,21370,222603,139655
1630935195706,21367,222532,139625
1630935195716,21365,222498,139631
1630935195726,21352,222460,139646
1630935195736,21348,222424,139633
1630935195746,21333,222368,139604
1630935195756,21299,222310,139512
1630935195766,21264,222177,139414
1630935195776,21210,222101,139310
1630935195786,21195,222029,139239
1630935195796,21157,221929,139133
1630935195806,21115,221799,139008
1630935195816,21078,221671,138905
1630935195826,21036,221622,138825
1630935195836,21012,221573,138777
1630935195846,21004,221597,138799
1630935195856,21012,221611,138841
1630935195866,21035,221717,138960
1630935195876,21065,221809,139091
1630935195886,21080,221984,139271
1630935195896,21093,222085,139312
1630935195906,21076,222034,139265
1630935195916,21067,222057,139234
1630935195926,21061,222066,139216
1630935195936,21096,222115,139351
1630935195946,21148,222308,139520
1630935195956,21207,222456,139711
1630935195966,21275,222702,139951
1630935195976,21296,222827,140063
1630935195986,21302,222902,140096
1630935195996,21305,222863,140060
1630935196006,21303,222825,140018
1630935196016,21299,222802,139990
1630935196026,21290,222790,139925
1630935196036,21280,222774,139872
1630935196046,21258,222725,139789
1630935196056,21237,222624,139688
1630935196066,21217,222564,139624
1630935196076,21204,222511,139595
1630935196086,21195,222493,139569
1630935196096,21167,222429,139540
1630935196106,21162,222364,139449
1630935196116,21131,222332,139418
1630935196126,21126,222297,139398
1630935196136,21129,222296,139412
1630935196146,21135,222270,139423
1630935196156,21139,222267,139439
1630935196166,21134,222249,139453
1630935196176,21132,222186,139401
1630935196186,21115,222155,139370
1630935196196,21108,222150,139382
1630935196206,21106,222150,139390
1630935196216,21094,222127,139370
1630935196226,21086,222133,139353
1630935196236,21103,222105,139393
1630935196246,21105,222089,139428
1630935196256,21121,222101,139415
1630935196266,21099,222064,139406
1630935196276,21060,222013,139294
1630935196286,20968,221778,138989
1630935196296,20893,221641,138799
1630935196306,20873,221634,138780
1630935196316,20916,221737,138931
1630935196326,20999,221964,139199
1630935196336,21070,222157,139418
1630935196346,21116,222271,139499
1630935196356,21137,222314,139515
1630935196366,21140,222259,139475
1630935196376,21124,222240,139385
1630935196386,21101,222177,139291
1630935196396,21087,222117,139180
1630935196406,21080,222083,139100
1630935196416,21077,221992,139067
1630935196426,21067,221982,139005
1630935196436,21078,221938,139011
1630935196446,21075,221962,139028
1630935196456,21086,221950,139074
1630935196466,21106,221942,139077
1630935196476,21105,221951,139072
1630935196486,21084,221838,138972
1630935196496,21010,221636,138730
1630935196506,20911,221404,138449
1630935196516,20832,221218,138178
1630935196526,20784,221049,138039
1630935196536,20777,221035,138033
1630935196546,20784,221023,138061
1630935196556,20790,220997,138049
1630935196566,20781,220950,138009
1630935196576,20777,220961,138035
1630935196586,20786,221010,138066
1630935196596,20783,221019,138126
1630935196606,20779,221056,138110
1630935196616,20778,221040,138102
1630935196626,20807,221197,138272
1630935196636,20814,221184,138217
1630935196646,20748,221011,137951
1630935196656,20707,220911,137806
1630935196666,20733,220930,137871
1630935196676,20832,221155,138191
1630935196686,20934,221449,138504
1630935196696,21027,221709,138798
1630935196706,21116,222008,139066
1630935196716,21166,222187,139206
1630935196726,21126,222112,139017
1630935196736,21059,221981,138802
1630935196746,21020,221888,138673
1630935196756,21021,221849,138636
1630935196766,21017,221836,138597
1630935196776,20996,221770,138536
1630935196786,20972,221694,138410
1630935196796,20925,221573,138230
1630935196806,20877,221404,138030
1630935196816,20827,221252,137873
1630935196826,20776,221128,137711
1630935196836,20740,221010,137623
1630935196846,20714,220968,137545
1630935196856,20697,220887,137463
1630935196866,20687,220817,137419
1630935196876,20677,220772,137368
1630935196886,20669,220745,137357
1630935196896,20675,220721,137354
1630935196906,20683,220704,137374
1630935196916,20688,220722,137393
1630935196926,20688,220708,137427
1630935196936,20695,220727,137453
1630935196946,20694,220753,137455
1630935196956,20695,220705,137426
1630935196966,20682,220656,137357
1630935196976,20658,220624,137287
1630935196986,20638,220567,137199
1630935196996,20637,220562,137227
1630935197006,20687,220733,137471
1630935197016,20722,220873,137566
1630935197026,20703,220871,137484
1630935197036,20682,220823,137449
1630935197046,20674,220822,137408
1630935197056,20699,220859,137455
1630935197066,20756,220932,137570
1630935197076,20792,221052,137681
1630935197086,20847,221224,137823
1630935197096,20889,221350,137951
1630935197106,20917,221400,137986
1630935197116,20918,221423,138003
1630935197126,20916,221437,137985
1630935197136,20908,221443,137958
1630935197146,20902,221451,137952
1630935197156,20890,221411,137892
1630935197166,20897,221383,137879
1630935197176,20899,221353,137830
1630935197186,20896,221354,137809
1630935197196,20894,221319,137778
1630935197206,20889,221318,137752
1630935197216,20878,221289,137715
1630935197226,20864,221247,137710
1630935197236,20870,221213,137680
1630935197246,20871,221207,137698
1630935197256,20868,221235,137665
1630935197266,20879,221184,137675
1630935197276,20879,221168,137638
1630935197286,20875,221117,137619
1630935197296,20868,221067,137574
1630935197306,20873,221061,137568
1630935197316,20882,221099,137611
1630935197326,20888,221098,137625
1630935197336,20885,221078,137611
1630935197346,20860,221052,137540
1630935197356,20841,221024,137466
1630935197366,20829,220970,137404
1630935197376,20859,221084,137576
1630935197386,20899,221186,137731
1630935197396,20894,221176,137633
1630935197406,20863,221089,137545
1630935197416,20876,221039,137490
1630935197426,20896,221027,137521
1630935197436,20950,221146,137650
1630935197446,20989,221204,137728
1630935197456,21056,221393,137999
1630935197466,21168,221773,138355
1630935197476,21236,221972,138532
1630935197486,21235,222024,138549
1630935197496,21233,222001,138549
1630935197506,21239,221995,138539
1630935197516,21230,221980,138494
1630935197526,21236,221954,138463
1630935197536,21229,221918,138411
1630935197546,21215,221798,138304
1630935197556,21191,221756,138206
1630935197566,21153,221698,138078
1630935197576,21138,221604,138025
1630935197586,21118,221586,137972
1630935197596,21114,221566,137914
1630935197606,21078,221433,137793
1630935197616,21037,221367,137687
1630935197626,20996,221262,137574
1630935197636,20973,221156,137478
1630935197646,20953,221111,137411
1630935197656,20943,221074,137329
1630935197666,20921,220980,137262
1630935197676,20907,220924,137219
1630935197686,20891,220844,137154
1630935197696,20892,220837,137128
1630935197706,20879,220818,137098
1630935197716,20881,220768,137090
1630935197726,20885,220792,137095
1630935197736,20889,220823,137075
1630935197746,20868,220776,137013
1630935197756,20854,220703,136982
1630935197766,20902,220853,137180
1630935197776,21014,221202,137520
1630935197786,21003,221194,137461
1630935197796,21008,221252,137515
1630935197806,21023,221347,137575
1630935197816,21028,221343,137586
1630935197826,21045,221342,137587
1630935197836,21060,221314,137574
1630935197846,21091,221438,137670
1630935197856,21148,221590,137829
1630935197866,21168,221664,137860
1630935197876,21183,221685,137871
1630935197886,21174,221674,137878
1630935197896,21178,221643,137856
1630935197906,21176,221680,137818
1630935197916,21172,221666,137829
1630935197926,21162,221621,137800
1630935197936,21155,221597,137781
1630935197946,21154,221585,137738
1630935197956,21138,221604,137706
1630935197966,21135,221550,137678
1630935197976,21122,221525,137629
1630935197986,21111,221482,137620
1630935197996,21096,221422,137569
1630935198006,21085,221400,137528
1630935198016,21073,221407,137482
1630935198026,21059,221344,137407
1630935198036,21028,221256,137307
1630935198046,21017,221138,137190
1630935198056,20985,221063,137129
1630935198066,20990,220988,137092
1630935198076,20981,221020,137098
1630935198086,20993,221029,137157
1630935198096,21015,221101,137157
1630935198106,21002,221119,137171
1630935198116,21002,221085,137163
1630935198126,21002,221088,137163
1630935198136,21061,221291,137385
1630935198146,21064,221313,137336
1630935198156,21008,221139,137120
1630935198166,20986,221109,137040
1630935198176,20982,221083,137019
1630935198186,21011,221145,137106
1630935198196,21052,221262,137222
1630935198206,21077,221387,137286
1630935198216,21114,221515,137389
1630935198226,21105,221593,137435
1630935198236,21096,221581,137389
1630935198246,21092,221633,137324
1630935198256,21071,221544,137255
1630935198266,21055,221495,137190
1630935198276,21038,221466,137109
1630935198286,21018,221411,137028
1630935198296,20994,221356,136948
1630935198306,20963,221255,136802
1630935198316,20924,221172,136663
1630935198326,20886,221087,136525
1630935198336,20853,220956,136416
1630935198346,20819,220908,136336
1630935198356,20796,220793,136220
1630935198366,20771,220729,136124
1630935198376,20748,220650,136060
1630935198386,20734,220585,135992
1630935198396,20717,220537,135963
1630935198406,20708,220519,135880
1630935198416,20692,220447,135812
1630935198426,20669,220359,135714
1630935198436,20654,220296,135634
1630935198446,20642,220259,135614
1630935198456,20636,220237,135592
1630935198466,20635,220273,135571
1630935198476,20635,220253,135547
1630935198486,20623,220188,135521
1630935198496,20594,220102,135413
1630935198506,20570,220042,135350
1630935198516,20590,220191,135507
1630935198526,20660,220421,135781
1630935198536,20669,220545,135803
1630935198546,20653,220508,135764
1630935198556,20643,220448,135714
1630935198566,20655,220471,135708
1630935198576,20671,220502,135776
1630935198586,20692,220570,135807
1630935198596,20720,220687,135943
1630935198606,20760,220865,136080
1630935198616,20749,220859,136031
1630935198626,20711,220733,135892
1630935198636,20693,220689,135798
1630935198646,20671,220658,135735
1630935198656,20658,220649,135688
1630935198666,20643,220543,135611
1630935198676,20626,220489,135558
1630935198686,20610,220472,135492
1630935198696,20607,220453,135440
1630935198706,20589,220449,135428
1630935198716,20584,220403,135395
1630935198726,20581,220366,135388
1630935198736,20579,220357,135364
1630935198746,20584,220348,135370
1630935198756,20583,220376,135357
1630935198766,20587,220316,135373
1630935198776,20587,220308,135370
1630935198786,20587,220287,135331
1630935198796,20577,220251,135294
1630935198806,20566,220192,135269
1630935198816,20571,220171,135274
1630935198826,20585,220206,135340
1630935198836,20620,220249,135449
1630935198846,20646,220295,135532
1630935198856,20648,220299,135493
1630935198866,20637,220224,135413
1630935198876,20619,220201,135376
1630935198886,20663,220428,135603
1630935198896,20714,220639,135797
1630935198906,20693,220493,135606
1630935198916,20656,220423,135513
1630935198926,20646,220382,135486
1630935198936,20679,220467,135570
1630935198946,20723,220599,135724
1630935198956,20771,220702,135832
1630935198966,20838,220953,136072
1630935198976,20901,221169,136276
1630935198986,20904,221201,136322
1630935198996,20910,221194,136305
1630935199006,20904,221170,136279
1630935199016,20891,221119,136222
1630935199026,20874,221048,136140
1630935199036,20857,220974,136052
1630935199046,20848,220895,135982
1630935199056,20827,220836,135890
1630935199066,20798,220719,135790
1630935199076,20778,220684,135692
1630935199086,20767,220591,135645
1630935199096,20765,220559,135627
1630935199106,20749,220532,135569
1630935199116,20723,220470,135530
1630935199126,20708,220426,135485
1630935199136,20703,220386,135449
1630935199146,20698,220351,135459
1630935199156,20688,220314,135394
1630935199166,20679,220258,135335
1630935199176,20673,220173,135287
1630935199186,20644,220139,135231
1630935199196,20645,220141,135227
1630935199206,20658,220127,135232
1630935199216,20647,220124,135226
1630935199226,20650,220137,135234
1630935199236,20643,220069,135213
1630935199246,20636,220089,135159
1630935199256,20620,220049,135099
1630935199266,20624,220023,135171
1630935199276,20710,220321,135481
1630935199286,20708,220289,135443
1630935199296,20702,220386,135462
1630935199306,20710,220403,135540
1630935199316,20708,220411,135511
1630935199326,20722,220416,135531
1630935199336,20724,220417,135554
1630935199346,20767,220516,135646
1630935199356,20804,220675,135771
1630935199366,20813,220683,135757
1630935199376,20803,220668,135741
1630935199386,20805,220652,135756
1630935199396,20807,220683,135752
1630935199406,20811,220697,135756
1630935199416,20804,220634,135714
1630935199426,20791,220589,135666
1630935199436,20775,220554,135622
1630935199446,20764,220511,135571
1630935199456,20754,220477,135477
1630935199466,20744,220440,135457
1630935199476,20736,220419,135429
1630935199486,20725,220345,135401
1630935199496,20717,220334,135380
1630935199506,20717,220279,135334
1630935199516,20702,220281,135342
1630935199526,20713,220244,135300
1630935199536,20690,220226,135248
1630935199546,20683,220180,135210
1630935199556,20668,220155,135207
1630935199566,20671,220112,135194
1630935199576,20678,220164,135232
1630935199586,20692,220160,135278
1630935199596,20695,220142,135261
1630935199606,20684,220144,135238
1630935199616,20664,220075,135189
1630935199626,20677,220140,135268
1630935199636,20699,220210,135353
1630935199646,20688,220202,135304
1630935199656,20690,220195,135292
1630935199666,20691,220173,135257
1630935199676,20685,220190,135264
1630935199686,20722,220295,135391
1630935199696,20774,220423,135561
1630935199706,20846,220682,135824
1630935199716,20906,220871,135967
1630935199726,20916,220910,135991
1630935199736,20914,220877,136008
1630935199746,20913,220896,136018
1630935199756,20922,220910,136034
1630935199766,20932,220959,136087
1630935199776,20948,221021,136112
1630935199786,20954,220997,136103
1630935199796,20942,220960,136042
1630935199806,20926,220860,136004
1630935199816,20924,220838,135947
1630935199826,20914,220842,135965
1630935199836,20914,220833,135984
1630935199846,20916,220804,135953
1630935199856,20896,220770,135907
1630935199866,20876,220699,135824
1630935199876,20852,220611,135745
1630935199886,20829,220532,135652
1630935199896,20820,220467,135631
1630935199906,20814,220450,135639
1630935199916,20801,220416,135583
1630935199926,20784,220344,135533
1630935199936,20767,220280,135458
1630935199946,20748,220216,135414
1630935199956,20746,220231,135391
1630935199966,20740,220200,135372
1630935199976,20733,220167,135364
1630935199986,20719,220099,135320
1630935199996,20696,220107,135289
1630935200006,20686,220101,135249
1630935200016,20680,220078,135275
1630935200026,20697,220142,135446
1630935200036,20833,220610,135890
1630935200046,20853,220662,135874
1630935200056,20826,220596,135808
1630935200066,20853,220689,135929
1630935200076,20876,220769,136001
1630935200086,20895,220764,136060
1630935200096,20909,220842,136094
1630935200106,20939,220923,136238
1630935200116,21032,221283,136563
1630935200126,21087,221449,136664
1630935200136,21086,221401,136632
1630935200146,21075,221338,136568
1630935200156,21028,221182,136378
1630935200166,20990,221066,136270
1630935200176,20963,221048,136269
1630935200186,20969,221085,136231
1630935200196,20947,220986,136166
1630935200206,20924,220943,136091
1630935200216,20902,220867,136024
1630935200226,20886,220861,135989
1630935200236,20882,220847,135978
1630935200246,20869,220744,135946
1630935200256,20860,220700,135879
1630935200266,20841,220705,135842
1630935200276,20826,220631,135763
1630935200286,20796,220516,135685
1630935200296,20773,220433,135605
1630935200306,20761,220360,135548
1630935200316,20745,220357,135554
1630935200326,20751,220352,135578
1630935200336,20764,220394,135645
1630935200346,20785,220447,135713
1630935200356,20799,220409,135734
1630935200366,20787,220450,135714
1630935200376,20773,220410,135693
1630935200386,20788,220484,135787
1630935200396,20852,220733,136035
1630935200406,20857,220723,136022
1630935200416,20832,220634,135926
1630935200426,20826,220642,135924
1630935200436,20829,220582,135870
1630935200446,20877,220743,136066
1630935200456,20924,220913,136183
1630935200466,20962,220985,136291
1630935200476,21004,221107,136487
1630935200486,21032,221238,136553
1630935200496,21032,221262,136595
1630935200506,21046,221338,136626
1630935200516,21051,221344,136646
1630935200526,21061,221342,136670
1630935200536,21053,221319,136649
1630935200546,21048,221319,136627
1630935200556,21027,221237,136546
1630935200566,21002,221098,136441
1630935200576,20969,221042,136339
1630935200586,20944,220968,136241
1630935200596,20937,220909,136204
1630935200606,20929,220899,136170
1630935200616,20913,220877,136117
1630935200626,20890,220784,136062
1630935200636,20867,220742,136010
1630935200646,20853,220686,135963
1630935200656,20833,220589,135918
1630935200666,20820,220581,135891
1630935200676,20802,220541,135864
1630935200686,20794,220473,135818
1630935200696,20781,220426,135791
1630935200706,20769,220398,135735
1630935200716,20764,220385,135732
1630935200726,20765,220352,135763
1630935200736,20765,220366,135798
1630935200746,20767,220410,135841
1630935200756,20764,220398,135826
1630935200766,20741,220333,135774
1630935200776,20726,220284,135715
1630935200786,20748,220339,135843
1630935200796,20853,220815,136268
1630935200806,20858,220761,136179
1630935200816,20878,220891,136371
1630935200826,20956,221144,136638
1630935200836,20960,221146,136625
1630935200846,20961,221110,136614
1630935200856,20970,221120,136613
1630935200866,20987,221180,136668
1630935200876,21031,221397,136858
1630935200886,21065,221468,136977
1630935200896,21072,221465,136951
1630935200906,21064,221463,136941
1630935200916,21042,221386,136826
1630935200926,21018,221328,136771
1630935200936,21010,221317,136768
1630935200946,21003,221274,136741
1630935200956,20997,221222,136681
1630935200966,20963,221183,136580
1630935200976,20944,221096,136498
1630935200986,20935,221071,136469
1630935200996,20918,221069,136439
1630935201006,20907,220974,136367
1630935201016,20888,220931,136311
1630935201026,20868,220828,136254
1630935201036,20849,220810,136203
1630935201046,20823,220715,136160
1630935201056,20813,220681,136096
1630935201066,20801,220651,136065
1630935201076,20780,220589,136027
1630935201086,20768,220544,135988
1630935201096,20753,220477,135971
1630935201106,20759,220501,136008
1630935201116,20768,220535,136090
1630935201126,20770,220525,136101
1630935201136,20773,220547,136069
1630935201146,20757,220518,136059
1630935201156,20756,220515,136088
1630935201166,20797,220678,136254
1630935201176,20802,220677,136245
1630935201186,20800,220703,136230
1630935201196,20806,220693,136242
1630935201206,20813,220694,136251
1630935201216,20862,220838,136429
1630935201226,20917,221037,136589
1630935201236,20969,221193,136770
1630935201246,21042,221436,136995
1630935201256,21085,221602,137141
1630935201266,21082,221583,137131
1630935201276,21057,221553,137064
1630935201286,21025,221478,136986
1630935201296,21021,221440,136940
1630935201306,21004,221376,136887
1630935201316,21000,221369,136895
1630935201326,20999,221353,136837
1630935201336,20968,221277,136744
1630935201346,20930,221165,136639
1630935201356,20908,221135,136586
1630935201366,20899,221063,136539
1630935201376,20882,221024,136487
1630935201386,20861,220950,136430
1630935201396,20830,220831,136327
1630935201406,20790,220752,136219
1630935201416,20767,220652,136152
1630935201426,20740,220570,136099
1630935201436,20730,220564,136080
1630935201446,20728,220523,136084
1630935201456,20724,220512,136082
1630935201466,20716,220503,136079
1630935201476,20716,220503,136108
1630935201486,20709,220480,136094
1630935201496,20703,220433,136085
1630935201506,20683,220411,136011
1630935201516,20660,220322,135960
1630935201526,20639,220306,135922
1630935201536,20616,220259,135879
1630935201546,20612,220311,135959
1630935201556,20686,220596,136252
1630935201566,20739,220771,136395
1630935201576,20751,220769,136432
1630935201586,20770,220856,136526
1630935201596,20766,220863,136507
1630935201606,20783,220852,136526
1630935201616,20790,220912,136533
1630935201626,20804,220956,136628
1630935201636,20860,221125,136829
1630935201646,20920,221331,137028
1630935201656,20954,221415,137099
1630935201666,20958,221390,137085
1630935201676,20937,221329,137009
1630935201686,20913,221285,136953
1630935201696,20915,221279,136953
1630935201706,20902,221275,136932
1630935201716,20902,221260,136884
1630935201726,20874,221200,136822
1630935201736,20862,221147,136755
1630935201746,20838,221064,136702
1630935201756,20819,221015,136634
1630935201766,20803,220959,136561
1630935201776,20765,220902,136511
1630935201786,20748,220845,136419
1630935201796,20721,220812,136402
1630935201806,20694,220765,136363
1630935201816,20686,220690,136294
1630935201826,20659,220562,136199
1630935201836,20624,220465,136094
1630935201846,20590,220390,136004
1630935201856,20567,220343,135965
1630935201866,20559,220312,136002
1630935201876,20575,220367,136058
1630935201886,20588,220380,136140
1630935201896,20599,220424,136173
1630935201906,20581,220383,136158
1630935201916,20566,220357,136110
1630935201926,20571,220473,136239
1630935201936,20677,220765,136563
1630935201946,20646,220583,136314
1630935201956,20592,220476,136201
1630935201966,20565,220458,136168
1630935201976,20581,220422,136183
1630935201986,20649,220636,136436
1630935201996,20710,220776,136601
1630935202006,20760,220957,136808
1630935202016,20868,221324,137165
1630935202026,20908,221424,137234
1630935202036,20897,221452,137233
1630935202046,20878,221381,137184
1630935202056,20867,221341,137159
1630935202066,20861,221343,137116
1630935202076,20856,221282,137083
1630935202086,20844,221265,137043
1630935202096,20816,221220,136960
1630935202106,20777,221094,136810
1630935202116,20735,221011,136704
1630935202126,20733,220947,136664
1630935202136,20709,220930,136626
1630935202146,20705,220872,136575
1630935202156,20679,220790,136516
1630935202166,20632,220658,136403
1630935202176,20601,220604,136321
1630935202186,20567,220492,136240
1630935202196,20538,220432,136182
1630935202206,20494,220346,136057
1630935202216,20452,220195,135943
1630935202226,20412,220112,135823
1630935202236,20386,219988,135765
1630935202246,20363,219960,135699
1630935202256,20343,219906,135695
1630935202266,20338,219869,135671
1630935202276,20306,219877,135649
1630935202286,20297,219798,135604
1630935202296,20274,219785,135525
1630935202306,20256,219754,135515
1630935202316,20351,220084,135940
1630935202326,20413,220227,136061
1630935202336,20419,220307,136120
1630935202346,20471,220482,136339
1630935202356,20479,220526,136352
1630935202366,20492,220517,136382
1630935202376,20498,220513,136397
1630935202386,20501,220557,136402
1630935202396,20563,220742,136626
1630935202406,20651,221001,136918
1630935202416,20668,221085,136960
1630935202426,20670,221053,136938
1630935202436,20643,220967,136863
1630935202446,20614,220918,136764
1630935202456,20591,220842,136686
1630935202466,20572,220847,136631
1630935202476,20574,220789,136617
1630935202486,20556,220760,136563
1630935202496,20538,220710,136516
1630935202506,20524,220667,136460
1630935202516,20505,220604,136393
1630935202526,20476,220526,136296
1630935202536,20444,220423,136181
1630935202546,20404,220321,136101
1630935202556,20374,220239,136039
1630935202566,20347,220220,135963
1630935202576,20323,220093,135888
1630935202586,20285,219987,135763
1630935202596,20235,219868,135623
1630935202606,20190,219730,135484
1630935202616,20159,219644,135454
1630935202626,20164,219690,135496
1630935202636,20174,219731,135560
1630935202646,20182,219727,135591
1630935202656,20165,219699,135601
1630935202666,20154,219654,135518
1630935202676,20140,219608,135481
1630935202686,20209,219898,135889
1630935202696,20340,220339,136276
1630935202706,20305,220197,136116
1630935202716,20308,220186,136156
1630935202726,20292,220104,136034
1630935202736,20282,220074,136040
1630935202746,20321,220153,136153
1630935202756,20352,220218,136238
1630935202766,20440,220515,136579
1630935202776,20594,220996,137060
1630935202786,20642,221179,137257
1630935202796,20661,221203,137319
1630935202806,20656,221197,137309
1630935202816,20652,221185,137295
1630935202826,20655,221187,137267
1630935202836,20646,221149,137216
1630935202846,20625,221068,137134
1630935202856,20593,221001,137014
1630935202866,20554,220893,136899
1630935202876,20540,220823,136851
1630935202886,20510,220824,136770
1630935202896,20500,220738,136745
1630935202906,20471,220657,136685
1630935202916,20440,220552,136568
1630935202926,20392,220419,136479
1630935202936,20367,220361,136407
1630935202946,20332,220286,136349
1630935202956,20302,220207,136260
