timestamp,green,ir,red
1630935167664,21357,57828,57883
1630935167674,21372,90604,90657
1630935167684,21367,123376,123261
1630935167694,21411,156158,155859
1630935167704,21430,188939,182601
1630935167714,21412,221526,182285
1630935167724,21418,254149,182252
1630935167734,21385,286573,182184
1630935167744,21382,290527,182163
1630935167754,21361,290523,182145
1630935167764,21344,290522,182108
1630935167774,21349,290490,182127
1630935167784,21379,290501,182190
1630935167794,21403,290477,182250
1630935167804,21435,290429,182299
1630935167814,21458,290427,182332
1630935167824,21449,290424,182290
1630935167834,21417,290414,182233
1630935167844,21404,290405,182159
1630935167854,21388,290428,182099
1630935167864,21339,290420,181991
1630935167874,21318,290395,181935
1630935167884,21308,290400,181865
1630935167894,21285,290438,181816
1630935167904,21280,290459,181791
1630935167914,21278,290416,181784
1630935167924,21289,290427,181746
1630935167934,21298,290417,181761
1630935167944,21301,290451,181723
1630935167954,21312,290374,181711
1630935167964,21312,290369,181729
1630935167974,21318,290352,181706
1630935167984,21322,290367,181682
1630935167994,21313,290397,181628
1630935168004,21295,290350,181584
1630935168014,21290,290347,181521
1630935168024,21289,290400,181559
1630935168034,21292,290379,181554
1630935168044,21307,290363,181673
1630935168054,21295,290333,181628
1630935168064,21323,290313,181740
1630935168074,21342,290286,181781
1630935168084,21356,290306,181791
1630935168094,21367,290207,181832
1630935168104,21351,290202,181804
1630935168114,21363,290216,181754
1630935168124,21334,290229,181748
1630935168134,21322,290236,181702
1630935168144,21331,290171,181714
1630935168154,21346,290087,181700
1630935168164,21334,290109,181655
1630935168174,21302,290108,181589
1630935168184,21294,290163,181544
1630935168194,21272,290141,181471
1630935168204,21250,290144,181416
1630935168214,21247,290152,181404
1630935168224,21245,290151,181369
1630935168234,21240,290120,181363
1630935168244,21231,290161,181337
1630935168254,21230,290169,181328
1630935168264,21217,290222,181314
1630935168274,21215,290216,181291
1630935168284,21219,290239,181296
1630935168294,21228,290238,181320
1630935168304,21239,290195,181355
1630935168314,21252,290235,181393
1630935168324,21261,290189,181412
1630935168334,21277,290229,181385
1630935168344,21272,290217,181400
1630935168354,21271,290285,181417
1630935168364,21261,290282,181448
1630935168374,21276,290304,181487
1630935168384,21282,290274,181462
1630935168394,21278,290310,181453
1630935168404,21278,290331,181433
1630935168414,21274,290335,181388
1630935168424,21279,290372,181448
1630935168434,21236,290345,181332
1630935168444,21246,290278,181369
1630935168454,21261,290282,181391
1630935168464,21259,290264,181376
1630935168474,21247,290238,181342
1630935168484,21250,290253,181340
1630935168494,21235,290210,181329
1630935168504,21225,290261,181297
1630935168514,21202,290233,181263
1630935168524,21209,290219,181281
1630935168534,21227,290216,181347
1630935168544,21250,290210,181400
1630935168554,21263,290206,181427
1630935168564,21269,290160,181441
1630935168574,21261,290180,181405
1630935168584,21250,290133,181373
1630935168594,21233,290166,181337
1630935168604,21217,290177,181284
1630935168614,21203,290160,181251
1630935168624,21185,290187,181207
1630935168634,21171,290211,181163
1630935168644,21163,290191,181133
1630935168654,21163,290223,181145
1630935168664,21159,290226,181144
1630935168674,21161,290221,181113
1630935168684,21154,290235,181116
1630935168694,21149,290276,181065
1630935168704,21134,290279,181026
1630935168714,21135,290250,180999
1630935168724,21134,290273,181008
1630935168734,21142,290310,180997
1630935168744,21151,290293,181010
1630935168754,21166,290346,181052
1630935168764,21176,290385,181093
1630935168774,21190,290358,181129
1630935168784,21213,290350,181180
1630935168794,21239,290343,181300
1630935168804,21244,290374,181294
1630935168814,21282,290327,181408
1630935168824,21278,290362,181430
1630935168834,21277,290345,181457
1630935168844,21271,290370,181458
1630935168854,21245,290386,181413
1630935168864,21247,290347,181414
1630935168874,21251,290327,181479
1630935168884,21265,290328,181514
1630935168894,21282,290281,181569
1630935168904,21290,290262,181578
1630935168914,21300,290277,181600
1630935168924,21310,290261,181661
1630935168934,21329,290297,181747
1630935168944,21336,290268,181765
1630935168954,21336,290225,181746
1630935168964,21327,290275,181732
1630935168974,21307,290295,181678
1630935168984,21277,290326,181605
1630935168994,21254,290367,181581
1630935169004,21265,290362,181573
1630935169014,21249,290366,181564
1630935169024,21249,290391,181560
1630935169034,21252,290443,181579
1630935169044,21269,290416,181614
1630935169054,21281,290432,181663
1630935169064,21288,290431,181695
1630935169074,21298,290462,181714
1630935169084,21298,290433,181723
1630935169094,21291,290494,181681
1630935169104,21290,290473,181710
1630935169114,21288,290488,181698
1630935169124,21290,290526,181692
1630935169134,21286,290516,181649
1630935169144,21277,290551,181630
1630935169154,21256,290558,181614
1630935169164,21259,290577,181614
1630935169174,21279,290589,181642
1630935169184,21296,290544,181676
1630935169194,21324,290553,181808
1630935169204,21324,290527,181864
1630935169214,21338,290529,181916
1630935169224,21372,290536,182022
1630935169234,21394,290511,182053
1630935169244,21388,290460,182080
1630935169254,21382,290433,182054
1630935169264,21361,290501,182029
1630935169274,21323,290543,181982
1630935169284,21279,290466,181922
1630935169294,21221,290524,181817
1630935169304,21214,290495,181789
1630935169314,21211,290468,181839
1630935169324,21230,290404,181868
1630935169334,21247,290372,181918
1630935169344,21266,290280,181954
1630935169354,21264,290311,181918
1630935169364,21246,290267,181856
1630935169374,21216,290233,181797
1630935169384,21190,290259,181714
1630935169394,21156,290194,181643
1630935169404,21123,290246,181539
1630935169414,21092,290229,181471
1630935169424,21058,290237,181374
1630935169434,21026,290265,181286
1630935169444,21000,290256,181205
1630935169454,20981,290262,181146
1630935169464,20975,290357,181119
1630935169474,20957,290295,181082
1630935169484,20950,290290,181015
1630935169494,20951,290269,181042
1630935169504,20966,290254,181055
1630935169514,20989,290263,181095
1630935169524,21016,290243,181152
1630935169534,21037,290220,181220
1630935169544,21056,290226,181253
1630935169554,21095,290222,181352
1630935169564,21140,290229,181449
1630935169574,21173,290220,181571
1630935169584,21160,290202,181548
1630935169594,21145,290236,181599
1630935169604,21119,290148,181551
1630935169614,21091,290182,181550
1630935169624,21100,290151,181576
1630935169634,21093,290147,181608
1630935169644,21075,290042,181570
1630935169654,21046,290087,181544
1630935169664,21029,290035,181501
1630935169674,21010,290052,181483
1630935169684,20995,290010,181439
1630935169694,20974,289969,181430
1630935169704,20964,289996,181359
1630935169714,20964,289908,181398
1630935169724,20969,289946,181410
1630935169734,20970,289885,181385
1630935169744,20954,289908,181341
1630935169754,20941,289866,181298
1630935169764,20919,289846,181251
1630935169774,20902,289892,181196
1630935169784,20894,289864,181148
1630935169794,20886,289887,181150
1630935169804,20879,289870,181102
1630935169814,20872,289841,181102
1630935169824,20854,289854,181087
1630935169834,20867,289860,181072
1630935169844,20863,289862,181061
1630935169854,20864,289849,181076
1630935169864,20863,289841,181074
1630935169874,20868,289840,181068
1630935169884,20864,289845,181037
1630935169894,20853,289864,181033
1630935169904,20860,289886,181066
1630935169914,20870,289872,181103
1630935169924,20882,289896,181107
1630935169934,20892,289891,181169
1630935169944,20914,289897,181210
1630935169954,20932,289904,181300
1630935169964,20909,289922,181258
1630935169974,20882,289871,181253
1630935169984,20895,289910,181290
1630935169994,20894,289837,181263
1630935170004,20859,289830,181185
1630935170014,20845,289817,181192
1630935170024,20838,289846,181208
1630935170034,20828,289867,181207
1630935170044,20825,289854,181271
1630935170054,20810,289790,181253
1630935170064,20815,289814,181307
1630935170074,20833,289792,181343
1630935170084,20851,289760,181395
1630935170094,20857,289755,181387
1630935170104,20853,289719,181406
1630935170114,20850,289719,181333
1630935170124,20811,289687,181282
1630935170134,20798,289686,181193
1630935170144,20759,289676,181111
1630935170154,20733,289708,181017
1630935170164,20701,289709,180950
1630935170174,20686,289745,180900
1630935170184,20673,289706,180871
1630935170194,20658,289711,180807
1630935170204,20643,289752,180744
1630935170214,20630,289705,180679
1630935170224,20623,289769,180641
1630935170234,20621,289760,180637
1630935170244,20621,289768,180620
1630935170254,20633,289801,180646
1630935170264,20650,289797,180679
1630935170274,20669,289782,180697
1630935170284,20684,289766,180726
1630935170294,20709,289817,180773
1630935170304,20727,289811,180815
1630935170314,20746,289822,180876
1630935170324,20768,289829,180921
1630935170334,20777,289875,180989
1630935170344,20802,289908,181123
1630935170354,20782,289861,181085
1630935170364,20779,289821,181143
1630935170374,20776,289824,181169
1630935170384,20771,289781,181206
1630935170394,20775,289769,181272
1630935170404,20759,289765,181240
1630935170414,20745,289771,181251
1630935170424,20747,289735,181280
1630935170434,20743,289784,181295
1630935170444,20733,289735,181303
1630935170454,20745,289731,181323
1630935170464,20735,289711,181319
1630935170474,20754,289690,181338
1630935170484,20764,289784,181425
1630935170494,20788,289740,181480
1630935170504,20798,289746,181516
1630935170514,20793,289784,181483
1630935170524,20787,289835,181470
1630935170534,20782,289834,181460
1630935170544,20775,289867,181446
1630935170554,20775,289875,181461
1630935170564,20770,289910,181438
1630935170574,20777,289939,181476
1630935170584,20783,289906,181488
1630935170594,20807,289920,181561
1630935170604,20824,289932,181603
1630935170614,20835,289877,181641
1630935170624,20855,289882,181645
1630935170634,20851,289886,181638
1630935170644,20843,289910,181620
1630935170654,20831,289948,181585
1630935170664,20806,289969,181546
1630935170674,20799,290034,181539
1630935170684,20797,289988,181534
1630935170694,20792,290035,181515
1630935170704,20794,290018,181521
1630935170714,20808,290036,181573
1630935170724,20818,290012,181616
1630935170734,20790,290040,181608
1630935170744,20772,290026,181641
1630935170754,20793,289982,181680
1630935170764,20797,289926,181665
1630935170774,20779,289899,181686
1630935170784,20789,289923,181743
1630935170794,20780,289856,181768
1630935170804,20789,289875,181797
1630935170814,20772,289851,181773
1630935170824,20740,289814,181717
1630935170834,20737,289806,181717
1630935170844,20727,289823,181710
1630935170854,20728,289792,181712
1630935170864,20734,289773,181717
1630935170874,20728,289706,181719
1630935170884,20724,289776,181670
1630935170894,20703,289755,181619
1630935170904,20679,289789,181536
1630935170914,20662,289796,181474
1630935170924,20641,289753,181416
1630935170934,20639,289764,181392
1630935170944,20634,289781,181381
1630935170954,20625,289822,181349
1630935170964,20621,289775,181345
1630935170974,20624,289833,181308
1630935170984,20617,289842,181271
1630935170994,20611,289851,181281
1630935171004,20616,289840,181265
1630935171014,20620,289843,181265
1630935171024,20633,289865,181300
1630935171034,20648,289908,181317
1630935171044,20664,289880,181330
1630935171054,20670,289891,181347
1630935171064,20675,289913,181355
1630935171074,20683,289900,181394
1630935171084,20704,289896,181409
1630935171094,20709,289954,181505
1630935171104,20719,289945,181567
1630935171114,20713,289886,181574
1630935171124,20727,289845,181634
1630935171134,20708,289770,181639
1630935171144,20718,289803,181690
1630935171154,20705,289738,181654
1630935171164,20689,289730,181670
1630935171174,20685,289765,181690
1630935171184,20686,289708,181731
1630935171194,20700,289669,181771
1630935171204,20715,289651,181830
1630935171214,20701,289683,181786
1630935171224,20670,289622,181729
1630935171234,20648,289635,181672
1630935171244,20629,289648,181649
1630935171254,20598,289645,181579
1630935171264,20583,289659,181514
1630935171274,20557,289669,181436
1630935171284,20526,289634,181366
1630935171294,20526,289678,181340
1630935171304,20533,289687,181345
1630935171314,20552,289691,181390
1630935171324,20577,289684,181459
1630935171334,20605,289691,181501
1630935171344,20622,289702,181542
1630935171354,20622,289711,181545
1630935171364,20624,289678,181532
1630935171374,20622,289685,181532
1630935171384,20610,289686,181505
1630935171394,20583,289732,181438
1630935171404,20551,289741,181339
1630935171414,20521,289760,181255
1630935171424,20522,289779,181245
1630935171434,20518,289803,181243
1630935171444,20541,289763,181304
1630935171454,20571,289791,181375
1630935171464,20588,289752,181438
1630935171474,20614,289729,181546
1630935171484,20641,289769,181596
1630935171494,20646,289739,181649
1630935171504,20630,289763,181681
1630935171514,20572,289714,181608
1630935171524,20587,289757,181683
1630935171534,20582,289732,181658
1630935171544,20557,289695,181645
1630935171554,20550,289655,181623
1630935171564,20540,289673,181667
1630935171574,20519,289672,181628
1630935171584,20510,289700,181589
1630935171594,20443,289704,181475
1630935171604,20426,289711,181430
1630935171614,20441,289659,181471
1630935171624,20466,289634,181509
1630935171634,20507,289612,181587
1630935171644,20527,289559,181653
1630935171654,20541,289604,181645
1630935171664,20538,289571,181660
1630935171674,20528,289562,181625
1630935171684,20521,289600,181590
1630935171694,20502,289613,181518
1630935171704,20477,289599,181467
1630935171714,20453,289638,181394
1630935171724,20438,289659,181325
1630935171734,20421,289663,181327
1630935171744,20431,289702,181322
1630935171754,20427,289708,181323
1630935171764,20447,289650,181345
1630935171774,20468,289752,181372
1630935171784,20497,289688,181429
1630935171794,20533,289638,181488
1630935171804,20572,289704,181548
1630935171814,20592,289720,181623
1630935171824,20605,289753,181657
1630935171834,20601,289733,181666
1630935171844,20594,289746,181682
1630935171854,20578,289739,181668
1630935171864,20569,289743,181708
1630935171874,20567,289732,181750
1630935171884,20524,289720,181725
1630935171894,20498,289662,181711
1630935171904,20538,289668,181780
1630935171914,20527,289661,181802
1630935171924,20545,289650,181886
1630935171934,20558,289575,181934
1630935171944,20549,289572,181931
1630935171954,20538,289578,181991
1630935171964,20539,289572,181986
1630935171974,20527,289563,181982
1630935171984,20516,289512,181979
1630935171994,20490,289569,181894
1630935172004,20469,289548,181869
1630935172014,20462,289543,181856
1630935172024,20447,289518,181810
1630935172034,20435,289505,181777
1630935172044,20429,289451,181690
1630935172054,20403,289463,181652
1630935172064,20401,289479,181627
1630935172074,20408,289485,181615
1630935172084,20408,289485,181624
1630935172094,20420,289521,181629
1630935172104,20438,289500,181631
1630935172114,20446,289467,181672
1630935172124,20465,289511,181702
1630935172134,20496,289483,181735
1630935172144,20509,289478,181781
1630935172154,20520,289436,181782
1630935172164,20520,289498,181779
1630935172174,20513,289460,181758
1630935172184,20500,289480,181699
1630935172194,20485,289492,181653
1630935172204,20456,289495,181612
1630935172214,20445,289551,181586
1630935172224,20417,289568,181542
1630935172234,20409,289539,181555
1630935172244,20393,289478,181540
1630935172254,20397,289470,181538
1630935172264,20400,289408,181568
1630935172274,20416,289485,181639
1630935172284,20400,289435,181668
1630935172294,20383,289372,181639
1630935172304,20429,289428,181750
1630935172314,20429,289351,181722
1630935172324,20408,289339,181664
1630935172334,20388,289334,181630
1630935172344,20370,289321,181591
1630935172354,20349,289356,181568
1630935172364,20331,289402,181557
1630935172374,20293,289423,181496
1630935172384,20314,289395,181520
1630935172394,20316,289469,181553
1630935172404,20355,289410,181607
1630935172414,20387,289427,181658
1630935172424,20424,289384,181732
1630935172434,20464,289357,181844
1630935172444,20486,289376,181858
1630935172454,20491,289375,181859
1630935172464,20487,289355,181817
1630935172474,20469,289347,181788
1630935172484,20463,289330,181745
1630935172494,20437,289304,181655
1630935172504,20400,289315,181531
1630935172514,20348,289345,181386
1630935172524,20307,289329,181237
1630935172534,20257,289346,181096
1630935172544,20222,289354,180989
1630935172554,20222,289375,180938
1630935172564,20215,289358,180914
1630935172574,20218,289387,180879
1630935172584,20235,289360,180896
1630935172594,20256,289328,180960
1630935172604,20268,289286,180998
1630935172614,20279,289289,181022
1630935172624,20289,289282,181070
1630935172634,20296,289263,181125
1630935172644,20308,289271,181191
1630935172654,20332,289252,181267
1630935172664,20368,289320,181393
1630935172674,20349,289269,181392
1630935172684,20353,289231,181391
1630935172694,20334,289275,181376
1630935172704,20289,289308,181312
1630935172714,20296,289256,181285
1630935172724,20276,289251,181255
1630935172734,20262,289255,181218
1630935172744,20255,289280,181211
1630935172754,20261,289240,181212
1630935172764,20279,289180,181228
1630935172774,20295,289172,181261
1630935172784,20317,289136,181272
1630935172794,20323,289103,181262
1630935172804,20335,289146,181316
1630935172814,20326,289151,181273
1630935172824,20317,289145,181251
1630935172834,20312,289195,181186
1630935172844,20299,289212,181189
1630935172854,20286,289245,181118
1630935172864,20277,289235,181084
1630935172874,20268,289267,181063
1630935172884,20282,289259,181047
1630935172894,20286,289257,181064
1630935172904,20318,289254,181120
1630935172914,20344,289238,181177
1630935172924,20359,289234,181203
1630935172934,20385,289249,181248
1630935172944,20398,289280,181257
1630935172954,20406,289294,181276
1630935172964,20402,289337,181291
1630935172974,20392,289333,181286
1630935172984,20382,289316,181296
1630935172994,20369,289253,181270
1630935173004,20358,289244,181238
1630935173014,20352,289263,181235
1630935173024,20348,289274,181212
1630935173034,20354,289254,181223
1630935173044,20350,289212,181202
1630935173054,20330,289268,181239
1630935173064,20290,289267,181110
1630935173074,20318,289235,181198
1630935173084,20332,289191,181200
1630935173094,20310,289230,181122
1630935173104,20312,289201,181127
1630935173114,20325,289231,181147
1630935173124,20327,289233,181131
1630935173134,20322,289282,181122
1630935173144,20305,289308,181064
1630935173154,20328,289284,181125
1630935173164,20381,289229,181227
1630935173174,20406,289299,181332
1630935173184,20449,289300,181432
1630935173194,20492,289232,181510
1630935173204,20526,289261,181568
1630935173214,20512,289278,181550
1630935173224,20504,289258,181486
1630935173234,20475,289274,181418
1630935173244,20466,289320,181353
1630935173254,20444,289325,181327
1630935173264,20439,289356,181270
1630935173274,20433,289329,181222
1630935173284,20434,289395,181241
1630935173294,20444,289370,181256
1630935173304,20465,289408,181289
1630935173314,20484,289399,181326
1630935173324,20506,289459,181370
1630935173334,20523,289452,181390
1630935173344,20559,289467,181457
1630935173354,20599,289435,181530
1630935173364,20613,289505,181607
1630935173374,20618,289492,181577
1630935173384,20611,289447,181589
1630935173394,20596,289493,181563
1630935173404,20582,289476,181542
1630935173414,20570,289446,181539
1630935173424,20574,289430,181567
1630935173434,20593,289433,181607
1630935173444,20605,289478,181696
1630935173454,20598,289435,181670
1630935173464,20618,289453,181707
1630935173474,20616,289452,181690
1630935173484,20599,289427,181679
1630935173494,20596,289424,181670
1630935173504,20583,289417,181626
1630935173514,20586,289447,181606
1630935173524,20590,289470,181629
1630935173534,20604,289426,181669
1630935173544,20653,289401,181751
1630935173554,20690,289386,181837
1630935173564,20703,289399,181840
1630935173574,20706,289416,181818
1630935173584,20706,289437,181832
1630935173594,20709,289488,181853
1630935173604,20697,289487,181808
1630935173614,20671,289476,181739
1630935173624,20649,289478,181653
1630935173634,20623,289523,181588
1630935173644,20615,289524,181554
1630935173654,20621,289536,181558
1630935173664,20620,289535,181564
1630935173674,20658,289483,181612
1630935173684,20687,289526,181643
1630935173694,20712,289473,181706
1630935173704,20732,289546,181767
1630935173714,20745,289508,181806
1630935173724,20769,289558,181820
1630935173734,20764,289532,181821
1630935173744,20749,289532,181790
1630935173754,20727,289543,181742
1630935173764,20690,289535,181685
1630935173774,20674,289533,181645
1630935173784,20658,289525,181619
1630935173794,20660,289523,181618
1630935173804,20677,289528,181650
1630935173814,20693,289463,181669
1630935173824,20707,289554,181704
1630935173834,20693,289498,181708
1630935173844,20702,289452,181734
1630935173854,20720,289445,181711
1630935173864,20717,289423,181721
1630935173874,20704,289427,181661
1630935173884,20692,289473,181614
1630935173894,20679,289513,181580
1630935173904,20663,289515,181564
1630935173914,20657,289560,181540
1630935173924,20663,289580,181570
1630935173934,20697,289540,181656
1630935173944,20742,289528,181733
1630935173954,20782,289545,181841
1630935173964,20817,289531,181903
1630935173974,20826,289479,181915
1630935173984,20819,289482,181912
1630935173994,20819,289525,181888
1630935174004,20788,289502,181799
1630935174014,20774,289506,181758
1630935174024,20749,289529,181675
1630935174034,20731,289527,181607
1630935174044,20713,289565,181556
1630935174054,20705,289533,181514
1630935174064,20708,289535,181487
1630935174074,20713,289563,181469
1630935174084,20720,289549,181500
1630935174094,20743,289599,181548
1630935174104,20758,289574,181569
1630935174114,20781,289548,181608
1630935174124,20800,289539,181655
1630935174134,20808,289533,181657
1630935174144,20807,289515,181712
1630935174154,20815,289528,181684
1630935174164,20795,289513,181666
1630935174174,20778,289539,181624
1630935174184,20767,289556,181598
1630935174194,20748,289513,181582
1630935174204,20754,289508,181587
1630935174214,20755,289544,181618
1630935174224,20732,289504,181568
1630935174234,20744,289501,181584
1630935174244,20757,289451,181606
1630935174254,20756,289438,181585
1630935174264,20757,289448,181565
1630935174274,20754,289477,181560
1630935174284,20747,289479,181544
1630935174294,20755,289480,181576
1630935174304,20780,289502,181619
1630935174314,20813,289446,181706
1630935174324,20850,289431,181756
1630935174334,20879,289416,181836
1630935174344,20909,289448,181931
1630935174354,20929,289462,181941
1630935174364,20924,289453,181910
1630935174374,20903,289460,181869
1630935174384,20889,289459,181788
1630935174394,20858,289462,181727
1630935174404,20838,289503,181675
1630935174414,20823,289519,181615
1630935174424,20816,289539,181592
1630935174434,20822,289590,181600
1630935174444,20840,289584,181625
1630935174454,20859,289545,181643
1630935174464,20875,289576,181689
1630935174474,20893,289619,181735
1630935174484,20911,289622,181756
1630935174494,20929,289616,181783
1630935174504,20924,289556,181825
1630935174514,20903,289578,181773
1630935174524,20901,289587,181721
1630935174534,20866,289586,181693
1630935174544,20836,289628,181647
1630935174554,20829,289614,181625
1630935174564,20821,289607,181585
1630935174574,20816,289557,181597
1630935174584,20822,289601,181596
1630935174594,20821,289578,181592
1630935174604,20823,289553,181583
1630935174614,20828,289628,181652
1630935174624,20792,289532,181552
1630935174634,20825,289540,181620
1630935174644,20840,289532,181660
1630935174654,20839,289507,181627
1630935174664,20813,289528,181561
1630935174674,20797,289518,181526
1630935174684,20795,289546,181459
1630935174694,20785,289578,181464
1630935174704,20764,289600,181407
1630935174714,20735,289622,181364
1630935174724,20735,289595,181353
1630935174734,20750,289614,181383
1630935174744,20767,289615,181409
1630935174754,20798,289578,181469
1630935174764,20826,289538,181518
1630935174774,20834,289500,181533
1630935174784,20831,289516,181475
1630935174794,20821,289566,181460
1630935174804,20821,289569,181426
1630935174814,20807,289567,181399
1630935174824,20803,289611,181346
1630935174834,20773,289573,181277
1630935174844,20770,289586,181256
1630935174854,20757,289605,181209
1630935174864,20755,289612,181166
1630935174874,20751,289611,181166
1630935174884,20751,289610,181183
1630935174894,20761,289584,181217
1630935174904,20772,289604,181249
1630935174914,20795,289572,181263
1630935174924,20822,289576,181299
1630935174934,20843,289571,181347
1630935174944,20848,289548,181373
1630935174954,20849,289548,181372
1630935174964,20844,289537,181380
1630935174974,20832,289525,181365
1630935174984,20855,289593,181373
1630935174994,20851,289620,181434
1630935175004,20832,289632,181407
1630935175014,20821,289578,181409
1630935175024,20821,289568,181405
1630935175034,20790,289607,181400
1630935175044,20769,289610,181320
1630935175054,20759,289574,181253
1630935175064,20741,289598,181185
1630935175074,20722,289595,181119
1630935175084,20713,289601,181094
1630935175094,20713,289568,181077
1630935175104,20740,289557,181112
1630935175114,20766,289538,181172
1630935175124,20796,289553,181233
1630935175134,20819,289524,181298
1630935175144,20833,289535,181322
1630935175154,20827,289559,181340
1630935175164,20833,289513,181314
1630935175174,20831,289571,181305
1630935175184,20812,289582,181279
1630935175194,20797,289561,181221
1630935175204,20783,289617,181193
1630935175214,20777,289616,181141
1630935175224,20779,289623,181192
1630935175234,20796,289642,181194
1630935175244,20815,289607,181282
1630935175254,20824,289602,181289
1630935175264,20830,289572,181296
1630935175274,20828,289589,181294
1630935175284,20814,289573,181283
1630935175294,20799,289545,181285
1630935175304,20787,289555,181232
1630935175314,20763,289573,181195
1630935175324,20748,289543,181169
1630935175334,20737,289536,181120
1630935175344,20736,289517,181125
1630935175354,20721,289514,181089
1630935175364,20702,289498,181066
1630935175374,20696,289535,181094
1630935175384,20700,289590,181138
1630935175394,20669,289473,181069
1630935175404,20708,289511,181181
1630935175414,20722,289481,181188
1630935175424,20721,289507,181146
1630935175434,20724,289494,181140
1630935175444,20718,289516,181104
1630935175454,20723,289526,181109
1630935175464,20687,289532,181068
1630935175474,20676,289557,181037
1630935175484,20690,289533,181074
1630935175494,20723,289501,181155
1630935175504,20762,289495,181218
1630935175514,20787,289419,181292
1630935175524,20812,289412,181316
1630935175534,20799,289468,181293
1630935175544,20792,289497,181233
1630935175554,20771,289485,181205
1630935175564,20760,289507,181156
1630935175574,20737,289523,181095
1630935175584,20704,289542,181007
1630935175594,20680,289543,180936
1630935175604,20655,289534,180897
1630935175614,20662,289568,180866
1630935175624,20666,289551,180867
1630935175634,20680,289568,180865
1630935175644,20701,289568,180937
1630935175654,20710,289519,180960
1630935175664,20704,289518,180994
1630935175674,20725,289510,181043
1630935175684,20726,289493,181050
1630935175694,20724,289479,181036
1630935175704,20725,289451,181037
1630935175714,20718,289460,181034
1630935175724,20699,289455,181034
1630935175734,20686,289465,181025
1630935175744,20676,289480,181012
1630935175754,20659,289518,181004
1630935175764,20610,289426,180919
1630935175774,20612,289421,180952
1630935175784,20638,289450,180961
1630935175794,20621,289433,180978
1630935175804,20628,289450,180971
1630935175814,20631,289425,180972
1630935175824,20620,289454,180964
1630935175834,20635,289437,181014
1630935175844,20663,289390,181088
1630935175854,20697,289381,181160
1630935175864,20744,289332,181244
1630935175874,20769,289378,181338
1630935175884,20788,289393,181383
1630935175894,20803,289366,181423
1630935175904,20793,289394,181395
1630935175914,20787,289398,181359
1630935175924,20771,289377,181322
1630935175934,20756,289368,181282
1630935175944,20742,289431,181248
1630935175954,20709,289428,181198
1630935175964,20696,289435,181147
1630935175974,20689,289437,181124
1630935175984,20700,289455,181130
1630935175994,20708,289467,181121
1630935176004,20725,289428,181141
1630935176014,20737,289467,181177
1630935176024,20746,289442,181200
1630935176034,20741,289428,181185
1630935176044,20732,289391,181179
1630935176054,20707,289387,181136
1630935176064,20674,289404,181071
1630935176074,20650,289422,181015
1630935176084,20621,289442,180998
1630935176094,20611,289407,180957
1630935176104,20615,289403,180961
1630935176114,20611,289415,180971
1630935176124,20631,289418,181017
1630935176134,20646,289405,181102
1630935176144,20626,289417,181104
1630935176154,20648,289409,181169
1630935176164,20686,289338,181267
1630935176174,20693,289340,181295
1630935176184,20699,289345,181280
1630935176194,20693,289363,181281
1630935176204,20680,289417,181252
1630935176214,20660,289426,181229
1630935176224,20643,289432,181210
1630935176234,20639,289399,181219
1630935176244,20672,289398,181295
1630935176254,20709,289388,181339
1630935176264,20725,289368,181393
1630935176274,20733,289349,181410
1630935176284,20739,289337,181379
1630935176294,20722,289379,181359
1630935176304,20707,289359,181297
1630935176314,20701,289360,181255
1630935176324,20678,289405,181209
1630935176334,20660,289388,181153
1630935176344,20653,289416,181121
1630935176354,20632,289372,181064
1630935176364,20632,289448,181026
1630935176374,20636,289462,181040
1630935176384,20641,289435,181021
1630935176394,20642,289465,181025
1630935176404,20652,289479,181069
1630935176414,20660,289466,181043
1630935176424,20657,289450,181078
1630935176434,20669,289472,181096
1630935176444,20654,289386,181109
1630935176454,20652,289400,181084
1630935176464,20636,289378,181048
1630935176474,20617,289392,181016
1630935176484,20596,289362,180955
1630935176494,20580,289361,180930
1630935176504,20564,289376,180928
1630935176514,20564,289385,180901
1630935176524,20565,289341,180907
1630935176534,20571,289350,180954
1630935176544,20546,289341,180912
1630935176554,20543,289250,180912
1630935176564,20549,289267,180937
1630935176574,20517,289276,180879
1630935176584,20520,289264,180873
1630935176594,20521,289222,180881
1630935176604,20529,289207,180844
1630935176614,20523,289204,180845
1630935176624,20522,289159,180830
1630935176634,20528,289104,180805
1630935176644,20543,289084,180833
1630935176654,20548,289022,180824
1630935176664,20555,289087,180852
1630935176674,20567,289085,180863
1630935176684,20590,289079,180933
1630935176694,20608,289078,180955
1630935176704,20619,289063,181014
1630935176714,20623,289076,180981
1630935176724,20616,289123,180984
1630935176734,20602,289127,180957
1630935176744,20569,289152,180863
1630935176754,20549,289153,180840
1630935176764,20547,289222,180783
1630935176774,20538,289205,180752
1630935176784,20534,289250,180782
1630935176794,20548,289277,180804
1630935176804,20563,289274,180868
1630935176814,20577,289259,180936
1630935176824,20611,289225,181034
1630935176834,20626,289231,181102
1630935176844,20639,289208,181121
1630935176854,20621,289247,181096
1630935176864,20590,289236,181031
1630935176874,20561,289288,181037
1630935176884,20548,289252,181008
1630935176894,20544,289262,180984
1630935176904,20550,289191,180996
1630935176914,20555,289215,181019
1630935176924,20572,289244,181098
1630935176934,20579,289167,181165
1630935176944,20621,289216,181261
1630935176954,20649,289194,181304
1630935176964,20674,289181,181384
1630935176974,20672,289200,181340
1630935176984,20654,289221,181293
1630935176994,20623,289263,181188
1630935177004,20586,289319,181087
1630935177014,20533,289389,180991
1630935177024,20486,289392,180915
1630935177034,20469,289403,180877
1630935177044,20491,289327,180957
1630935177054,20534,289335,181060
1630935177064,20594,289303,181184
1630935177074,20649,289310,181296
1630935177084,20666,289293,181305
1630935177094,20668,289281,181336
1630935177104,20657,289274,181279
1630935177114,20651,289285,181251
1630935177124,20625,289242,181169
1630935177134,20591,289287,181072
1630935177144,20567,289378,181025
1630935177154,20537,289366,180925
1630935177164,20528,289385,180918
1630935177174,20516,289376,180863
1630935177184,20495,289371,180865
1630935177194,20472,289355,180800
1630935177204,20445,289367,180800
1630935177214,20433,289327,180773
1630935177224,20444,289356,180786
1630935177234,20477,289292,180862
1630935177244,20494,289258,180903
1630935177254,20500,289272,180942
1630935177264,20502,289231,180941
1630935177274,20495,289230,180962
1630935177284,20468,289222,180965
1630935177294,20469,289209,180949
1630935177304,20464,289151,180948
1630935177314,20448,289189,180956
1630935177324,20415,289048,180883
1630935177334,20396,289069,180863
1630935177344,20384,289032,180835
1630935177354,20362,289052,180753
1630935177364,20347,289022,180732
1630935177374,20350,288975,180689
1630935177384,20346,288960,180633
1630935177394,20349,288927,180655
1630935177404,20357,288900,180636
1630935177414,20365,288863,180614
1630935177424,20381,288902,180660
1630935177434,20369,288980,180618
1630935177444,20354,289010,180593
1630935177454,20344,289004,180561
1630935177464,20343,289044,180563
1630935177474,20365,289030,180580
1630935177484,20399,289015,180648
1630935177494,20441,289021,180758
1630935177504,20473,289055,180852
1630935177514,20479,289042,180844
1630935177524,20463,289115,180815
1630935177534,20422,289126,180731
1630935177544,20386,289122,180668
1630935177554,20347,289166,180592
1630935177564,20328,289191,180546
1630935177574,20295,289172,180515
1630935177584,20261,289110,180504
1630935177594,20241,289090,180422
1630935177604,20192,289066,180303
1630935177614,20147,289067,180194
1630935177624,20135,289062,180180
1630935177634,20136,289084,180199
1630935177644,20157,288988,180273
1630935177654,20182,288959,180348
1630935177664,20210,288912,180404
1630935177674,20226,288902,180469
1630935177684,20246,288869,180541
1630935177694,20286,288877,180677
1630935177704,20305,288891,180784
1630935177714,20278,288859,180749
1630935177724,20289,288809,180734
1630935177734,20281,288886,180694
1630935177744,20239,288923,180527
1630935177754,20178,288904,180415
1630935177764,20136,288950,180335
1630935177774,20093,288950,180214
1630935177784,20054,288982,180144
1630935177794,20050,288929,180140
1630935177804,20082,288904,180222
1630935177814,20139,288897,180331
1630935177824,20207,288856,180498
1630935177834,20251,288886,180590
1630935177844,20285,288824,180690
1630935177854,20294,288842,180700
1630935177864,20291,288829,180685
1630935177874,20286,288875,180671
1630935177884,20275,288876,180630
1630935177894,20237,288869,180527
1630935177904,20198,288890,180412
1630935177914,20126,288933,180310
1630935177924,20100,288998,180172
1630935177934,20085,288983,180132
1630935177944,20081,289009,180080
1630935177954,20072,289023,180089
1630935177964,20085,289009,180118
1630935177974,20092,288987,180156
1630935177984,20111,288932,180207
1630935177994,20125,288908,180236
1630935178004,20141,288889,180287
1630935178014,20144,288880,180310
1630935178024,20143,288858,180332
1630935178034,20139,288897,180311
1630935178044,20118,288850,180286
1630935178054,20106,288844,180254
1630935178064,20082,288884,180225
1630935178074,20080,288888,180217
1630935178084,20076,288868,180213
1630935178094,20054,288820,180210
1630935178104,20048,288806,180180
1630935178114,20056,288851,180245
1630935178124,20040,288855,180197
1630935178134,20041,288819,180244
1630935178144,20041,288798,180213
1630935178154,20044,288743,180191
1630935178164,20062,288682,180219
1630935178174,20075,288636,180263
1630935178184,20084,288628,180268
1630935178194,20101,288646,180303
1630935178204,20123,288670,180343
1630935178214,20140,288673,180385
1630935178224,20148,288663,180433
1630935178234,20176,288665,180466
1630935178244,20192,288681,180527
1630935178254,20210,288697,180579
1630935178264,20215,288673,180576
1630935178274,20212,288689,180560
1630935178284,20193,288752,180528
1630935178294,20171,288760,180494
1630935178304,20142,288780,180444
1630935178314,20133,288848,180402
1630935178324,20127,288783,180402
1630935178334,20126,288806,180406
1630935178344,20120,288771,180411
1630935178354,20113,288743,180402
1630935178364,20095,288720,180356
1630935178374,20076,288670,180328
1630935178384,20043,288627,180283
1630935178394,20023,288646,180255
1630935178404,19995,288655,180206
1630935178414,19963,288617,180170
1630935178424,19951,288594,180141
1630935178434,19942,288587,180106
1630935178444,19928,288553,180082
1630935178454,19914,288542,180038
1630935178464,19917,288606,180049
1630935178474,19895,288563,180054
1630935178484,19877,288513,180004
1630935178494,19930,288480,180170
1630935178504,19978,288515,180233
1630935178514,19987,288506,180244
1630935178524,19996,288407,180229
1630935178534,20011,288446,180258
1630935178544,20014,288423,180275
1630935178554,20007,288468,180258
1630935178564,19980,288463,180192
1630935178574,19988,288470,180208
1630935178584,20032,288443,180302
1630935178594,20038,288445,180318
1630935178604,20057,288441,180336
1630935178614,20075,288435,180352
1630935178624,20082,288448,180380
1630935178634,20085,288427,180382
1630935178644,20087,288473,180396
1630935178654,20087,288445,180416
1630935178664,20065,288492,180328
1630935178674,20035,288517,180239
1630935178684,20002,288539,180161
1630935178694,19969,288570,180064
1630935178704,19942,288585,180045
1630935178714,19962,288584,180037
1630935178724,19952,288522,180048
1630935178734,19947,288515,180056
1630935178744,19949,288488,180058
1630935178754,19938,288449,180055
1630935178764,19923,288404,180022
1630935178774,19907,288408,179986
1630935178784,19892,288377,179938
1630935178794,19864,288327,179853
1630935178804,19836,288334,179797
1630935178814,19803,288367,179736
1630935178824,19773,288366,179680
1630935178834,19743,288357,179627
1630935178844,19725,288413,179596
1630935178854,19670,288306,179447
1630935178864,19683,288281,179482
1630935178874,19725,288293,179527
1630935178884,19745,288290,179621
1630935178894,19788,288287,179695
1630935178904,19830,288233,179755
1630935178914,19853,288194,179811
1630935178924,19889,288194,179892
1630935178934,19935,288159,180026
1630935178944,19924,288104,179971
1630935178954,19935,288103,180002
1630935178964,19935,288204,179979
1630935178974,19913,288193,179934
1630935178984,19867,288208,179844
1630935178994,19863,288183,179819
1630935179004,19859,288144,179802
1630935179014,19861,288113,179795
1630935179024,19874,288105,179790
1630935179034,19876,288127,179783
1630935179044,19871,288130,179709
1630935179054,19845,288140,179669
1630935179064,19835,288188,179612
1630935179074,19837,288190,179612
1630935179084,19841,288221,179612
1630935179094,19854,288197,179630
1630935179104,19857,288242,179653
1630935179114,19862,288237,179672
1630935179124,19862,288234,179698
1630935179134,19857,288203,179704
1630935179144,19857,288204,179716
1630935179154,19857,288150,179738
1630935179164,19854,288148,179731
1630935179174,19829,288117,179694
1630935179184,19829,288222,179691
1630935179194,19809,288179,179661
1630935179204,19812,288220,179653
1630935179214,19803,288211,179685
1630935179224,19808,288203,179686
1630935179234,19805,288233,179714
1630935179244,19817,288258,179716
1630935179254,19841,288291,179816
1630935179264,19808,288227,179726
1630935179274,19832,288216,179825
1630935179284,19896,288206,179970
1630935179294,19890,288282,179952
1630935179304,19868,288248,179889
1630935179314,19861,288320,179887
1630935179324,19858,288349,179930
1630935179334,19871,288362,179961
1630935179344,19849,288369,179964
1630935179354,19851,288373,179963
1630935179364,19857,288427,180004
1630935179374,19894,288456,180101
1630935179384,19940,288506,180253
1630935179394,20026,288600,180501
1630935179404,20096,288702,180694
1630935179414,20160,288763,180952
1630935179424,20222,288846,181130
1630935179434,20267,288852,181251
1630935179444,20294,288951,181327
1630935179454,20319,288956,181424
1630935179464,20334,289010,181440
1630935179474,20340,289026,181479
1630935179484,20342,289028,181429
1630935179494,20324,288999,181407
1630935179504,20298,289017,181308
1630935179514,20258,288981,181219
1630935179524,20217,288950,181129
1630935179534,20170,288951,181026
1630935179544,20146,288945,180979
1630935179554,20139,288895,180946
1630935179564,20150,288876,180919
1630935179574,20145,288863,180931
1630935179584,20143,288873,180911
1630935179594,20134,288876,180893
1630935179604,20132,288874,180851
1630935179614,20130,288889,180849
1630935179624,20136,288907,180871
1630935179634,20130,288928,180868
1630935179644,20123,288872,180807
1630935179654,20119,288842,180806
1630935179664,20117,288886,180795
1630935179674,20129,288839,180832
1630935179684,20152,288864,180842
1630935179694,20174,288839,180872
1630935179704,20178,288874,180882
1630935179714,20185,288846,180876
1630935179724,20195,288814,180872
1630935179734,20213,288764,180886
1630935179744,20215,288781,180899
1630935179754,20232,288732,180917
1630935179764,20256,288750,180947
1630935179774,20263,288807,180969
1630935179784,20257,288828,180937
1630935179794,20239,288908,180884
1630935179804,20230,288928,180816
1630935179814,20227,288949,180812
1630935179824,20222,288950,180842
1630935179834,20247,288995,180828
1630935179844,20271,288975,180860
1630935179854,20312,288936,180945
1630935179864,20339,288970,181028
1630935179874,20385,289013,181115
1630935179884,20404,288981,181159
1630935179894,20423,289002,181236
1630935179904,20429,289018,181256
1630935179914,20431,288977,181257
1630935179924,20430,289026,181258
1630935179934,20412,289019,181259
1630935179944,20387,289041,181208
1630935179954,20376,289072,181166
1630935179964,20373,289061,181192
1630935179974,20387,289086,181224
1630935179984,20392,289048,181213
1630935179994,20404,289047,181239
1630935180004,20425,289018,181277
1630935180014,20427,289062,181285
1630935180024,20444,289072,181383
1630935180034,20441,289038,181372
1630935180044,20464,289029,181431
1630935180054,20507,289035,181515
1630935180064,20526,289046,181534
1630935180074,20530,289067,181505
1630935180084,20528,289073,181509
1630935180094,20518,289102,181459
1630935180104,20494,289082,181382
1630935180114,20454,289100,181291
1630935180124,20408,289111,181180
1630935180134,20387,289118,181108
1630935180144,20355,289140,181005
1630935180154,20333,289150,180897
1630935180164,20325,289154,180837
1630935180174,20349,289080,180871
1630935180184,20376,289066,180900
1630935180194,20428,289051,180999
1630935180204,20481,289039,181125
1630935180214,20538,289033,181248
1630935180224,20598,289068,181365
1630935180234,20602,289030,181339
1630935180244,20602,289088,181325
1630935180254,20604,289102,181300
1630935180264,20586,289165,181266
1630935180274,20573,289131,181259
1630935180284,20555,289126,181234
1630935180294,20531,289114,181170
1630935180304,20504,289127,181097
1630935180314,20470,289146,181034
1630935180324,20458,289151,180959
1630935180334,20438,289096,180953
1630935180344,20440,289088,180943
1630935180354,20449,289103,180939
1630935180364,20452,289098,180925
1630935180374,20460,289066,180940
1630935180384,20468,289106,180947
1630935180394,20478,289095,180965
1630935180404,20487,289098,180981
1630935180414,20502,289102,181017
1630935180424,20498,289114,181012
1630935180434,20500,289123,181010
1630935180444,20525,289179,181050
1630935180454,20558,289176,181103
1630935180464,20578,289217,181156
1630935180474,20595,289210,181164
1630935180484,20606,289154,181209
1630935180494,20633,289187,181273
1630935180504,20661,289169,181327
1630935180514,20673,289154,181379
1630935180524,20697,289130,181390
1630935180534,20706,289133,181403
1630935180544,20698,289149,181375
1630935180554,20700,289173,181383
1630935180564,20699,289182,181380
1630935180574,20698,289180,181381
1630935180584,20694,289199,181368
1630935180594,20685,289179,181334
1630935180604,20682,289202,181288
1630935180614,20667,289241,181235
1630935180624,20661,289277,181199
1630935180634,20652,289322,181177
1630935180644,20640,289278,181150
1630935180654,20648,289300,181147
1630935180664,20659,289289,181200
1630935180674,20673,289302,181230
1630935180684,20688,289281,181271
1630935180694,20701,289316,181312
1630935180704,20712,289305,181355
1630935180714,20731,289306,181375
1630935180724,20742,289343,181408
1630935180734,20755,289341,181430
1630935180744,20774,289375,181467
1630935180754,20784,289373,181498
1630935180764,20801,289393,181554
1630935180774,20821,289401,181605
1630935180784,20832,289471,181614
1630935180794,20829,289479,181629
1630935180804,20837,289507,181635
1630935180814,20851,289523,181621
1630935180824,20893,289636,181800
1630935180834,20906,289621,181849
1630935180844,20938,289603,181943
1630935180854,20994,289596,182042
1630935180864,21009,289635,182062
1630935180874,20993,289662,181980
1630935180884,20972,289649,181937
1630935180894,20951,289703,181923
1630935180904,20962,289683,181963
1630935180914,20973,289722,181988
1630935180924,20973,289725,182026
1630935180934,20975,289650,181975
1630935180944,20982,289698,181945
1630935180954,20982,289703,181940
1630935180964,21010,289654,181951
1630935180974,21031,289643,181973
1630935180984,21053,289616,181993
1630935180994,21046,289685,181985
1630935181004,21033,289614,181948
1630935181014,21023,289710,181914
1630935181024,21014,289725,181888
1630935181034,21014,289723,181883
1630935181044,21008,289722,181873
1630935181054,20998,289768,181848
1630935181064,20976,289773,181798
1630935181074,20956,289817,181755
1630935181084,20951,289782,181760
1630935181094,20960,289802,181795
1630935181104,20985,289783,181825
1630935181114,20998,289782,181885
1630935181124,21014,289748,181912
1630935181134,21025,289754,181943
1630935181144,21043,289761,181978
1630935181154,21059,289805,182024
1630935181164,21073,289745,182062
1630935181174,21099,289811,182140
1630935181184,21129,289820,182216
1630935181194,21170,289849,182325
1630935181204,21242,289959,182587
1630935181214,21336,290175,183005
1630935181224,21419,290391,183307
1630935181234,21487,290587,183606
1630935181244,21575,290827,183973
1630935181254,21717,291054,184472
1630935181264,21864,291241,184934
1630935181274,21963,291326,185263
1630935181284,22037,291363,185428
1630935181294,22087,291339,185640
1630935181304,22104,291270,185688
1630935181314,22056,291177,185523
1630935181324,21998,291124,185349
1630935181334,21962,291083,185221
1630935181344,21936,291064,185161
1630935181354,21913,291012,185069
1630935181364,21875,290925,184938
1630935181374,21826,290889,184769
1630935181384,21758,290803,184537
1630935181394,21693,290726,184292
1630935181404,21631,290642,184079
1630935181414,21590,290629,183937
1630935181424,21552,290580,183798
1630935181434,21492,290473,183612
1630935181444,21429,290426,183426
1630935181454,21387,290387,183250
1630935181464,21371,290323,183200
1630935181474,21383,290296,183180
1630935181484,21383,290250,183158
1630935181494,21382,290196,183141
1630935181504,21370,290152,183044
1630935181514,21354,290141,182978
1630935181524,21337,290168,182897
1630935181534,21322,290143,182886
1630935181544,21312,290109,182862
1630935181554,21291,290149,182780
1630935181564,21273,290160,182690
1630935181574,21252,290142,182595
1630935181584,21246,290094,182540
1630935181594,21256,290112,182555
1630935181604,21222,290154,182516
1630935181614,21217,290103,182464
1630935181624,21203,290113,182440
1630935181634,21200,290087,182400
1630935181644,21199,290058,182351
1630935181654,21191,289995,182315
1630935181664,21185,289976,182241
1630935181674,21174,289982,182203
1630935181684,21166,290041,182209
1630935181694,21134,289952,182102
1630935181704,21139,289933,182090
1630935181714,21163,289880,182121
1630935181724,21196,289815,182155
1630935181734,21210,289790,182138
1630935181744,21224,289701,182119
1630935181754,21224,289695,182087
1630935181764,21209,289662,182032
1630935181774,21201,289636,181950
1630935181784,21165,289668,181879
1630935181794,21135,289657,181789
1630935181804,21121,289662,181711
1630935181814,21086,289666,181651
1630935181824,21052,289679,181525
1630935181834,21005,289710,181384
1630935181844,20962,289686,181253
1630935181854,20918,289752,181121
1630935181864,20891,289788,181037
1630935181874,20880,289831,180991
1630935181884,20887,289773,180998
1630935181894,20919,289781,181063
1630935181904,20957,289763,181129
1630935181914,21001,289762,181252
1630935181924,21041,289790,181348
1630935181934,21087,289797,181415
1630935181944,21122,289804,181508
1630935181954,21152,289741,181593
1630935181964,21172,289768,181659
1630935181974,21212,289795,181687
1630935181984,21229,289799,181751
1630935181994,21245,289813,181852
1630935182004,21214,289742,181750
1630935182014,21210,289769,181720
1630935182024,21170,289737,181616
1630935182034,21140,289815,181558
1630935182044,21135,289792,181537
1630935182054,21112,289778,181448
1630935182064,21102,289785,181411
1630935182074,21103,289835,181428
1630935182084,21099,289799,181386
1630935182094,21111,289783,181413
1630935182104,21129,289728,181411
1630935182114,21137,289741,181409
1630935182124,21155,289748,181461
1630935182134,21191,289738,181555
1630935182144,21211,289745,181557
1630935182154,21222,289797,181590
1630935182164,21224,289797,181583
1630935182174,21222,289793,181550
1630935182184,21219,289823,181551
1630935182194,21210,289872,181544
1630935182204,21205,289869,181537
1630935182214,21197,289911,181518
1630935182224,21193,289873,181508
1630935182234,21185,289886,181515
1630935182244,21193,289878,181505
1630935182254,21203,289937,181541
1630935182264,21216,289893,181594
1630935182274,21233,289896,181601
1630935182284,21241,289921,181615
1630935182294,21243,289899,181621
1630935182304,21239,289888,181594
1630935182314,21212,289938,181562
1630935182324,21198,289911,181512
1630935182334,21192,289930,181508
1630935182344,21187,289946,181479
1630935182354,21194,290005,181489
1630935182364,21202,289932,181504
1630935182374,21208,289929,181515
1630935182384,21202,289924,181504
1630935182394,21196,289942,181478
1630935182404,21222,289922,181505
1630935182414,21229,289907,181504
1630935182424,21220,289928,181440
1630935182434,21209,289952,181395
1630935182444,21189,289915,181383
1630935182454,21186,289970,181354
1630935182464,21190,290026,181385
1630935182474,21190,289991,181430
1630935182484,21228,289974,181490
1630935182494,21263,290013,181574
1630935182504,21290,289956,181637
1630935182514,21314,289940,181655
1630935182524,21324,289922,181658
1630935182534,21313,289981,181633
1630935182544,21294,289968,181560
1630935182554,21270,290004,181498
1630935182564,21242,289992,181426
1630935182574,21237,290035,181380
1630935182584,21223,289977,181343
1630935182594,21216,290006,181321
1630935182604,21219,289981,181280
1630935182614,21203,289945,181284
1630935182624,21198,289982,181291
1630935182634,21184,289981,181233
1630935182644,21188,290061,181255
1630935182654,21186,290028,181232
1630935182664,21202,290015,181261
1630935182674,21216,290035,181307
1630935182684,21240,290047,181334
1630935182694,21253,290041,181373
1630935182704,21270,290038,181388
1630935182714,21274,290081,181398
1630935182724,21268,290056,181389
1630935182734,21277,290070,181399
1630935182744,21290,290041,181410
1630935182754,21293,290087,181429
1630935182764,21294,290124,181461
1630935182774,21270,290092,181395
1630935182784,21272,290104,181405
1630935182794,21252,290078,181373
1630935182804,21259,290106,181403
1630935182814,21276,290107,181434
1630935182824,21273,290072,181398
1630935182834,21279,290055,181445
1630935182844,21307,290095,181542
1630935182854,21340,290074,181631
1630935182864,21377,290052,181685
1630935182874,21373,290025,181670
1630935182884,21372,290086,181675
1630935182894,21383,290077,181690
1630935182904,21401,290093,181723
1630935182914,21397,290107,181699
1630935182924,21366,290072,181642
1630935182934,21343,290066,181542
1630935182944,21332,290096,181492
1630935182954,21313,290142,181448
1630935182964,21314,290133,181435
1630935182974,21304,290085,181441
1630935182984,21315,290093,181487
1630935182994,21327,290069,181505
1630935183004,21340,290055,181523
1630935183014,21352,290085,181558
1630935183024,21356,290075,181615
1630935183034,21361,290042,181626
1630935183044,21351,290045,181606
1630935183054,21335,290025,181553
1630935183064,21323,290072,181529
1630935183074,21293,290076,181463
1630935183084,21261,290102,181418
1630935183094,21264,290024,181430
1630935183104,21271,290049,181419
1630935183114,21280,290026,181453
1630935183124,21278,290032,181446
1630935183134,21297,289992,181485
1630935183144,21309,289999,181529
1630935183154,21319,290050,181584
1630935183164,21262,289998,181439
1630935183174,21292,289983,181554
1630935183184,21304,289978,181520
1630935183194,21275,289978,181445
1630935183204,21269,289938,181423
1630935183214,21276,289972,181423
1630935183224,21243,289979,181347
1630935183234,21220,290048,181319
1630935183244,21197,290061,181258
1630935183254,21177,290071,181263
1630935183264,21189,290076,181323
1630935183274,21224,290038,181332
1630935183284,21252,290014,181388
1630935183294,21271,289925,181404
1630935183304,21291,289960,181400
1630935183314,21293,289974,181441
1630935183324,21285,289923,181382
1630935183334,21275,289917,181348
1630935183344,21264,289918,181322
1630935183354,21247,289916,181282
1630935183364,21216,289899,181196
1630935183374,21183,289897,181117
1630935183384,21129,289952,181011
1630935183394,21105,289927,180924
1630935183404,21070,289950,180829
1630935183414,21052,290005,180797
1630935183424,21042,289963,180774
1630935183434,21038,289958,180741
1630935183444,21042,289943,180771
1630935183454,21046,289927,180774
1630935183464,21060,289920,180786
1630935183474,21076,289916,180835
1630935183484,21092,289903,180894
1630935183494,21114,289913,180947
1630935183504,21142,289910,181046
1630935183514,21175,289903,181118
1630935183524,21207,289853,181208
1630935183534,21224,289885,181288
1630935183544,21190,289804,181176
1630935183554,21188,289748,181146
1630935183564,21154,289760,181058
1630935183574,21143,289841,181067
1630935183584,21137,289798,181078
1630935183594,21123,289849,181029
1630935183604,21085,289910,180984
1630935183614,21059,289957,180966
1630935183624,21046,289940,180927
1630935183634,21049,289911,180916
1630935183644,21060,289862,180891
1630935183654,21063,289851,180875
1630935183664,21080,289858,180869
1630935183674,21084,289820,180932
1630935183684,21101,289863,180946
1630935183694,21105,289842,180943
1630935183704,21111,289816,180941
1630935183714,21127,289836,180931
1630935183724,21130,289842,180979
1630935183734,21131,289837,180981
1630935183744,21118,289855,180969
1630935183754,21100,289834,180928
1630935183764,21076,289858,180886
1630935183774,21067,289851,180897
1630935183784,21061,289876,180891
1630935183794,21059,289872,180909
1630935183804,21058,289847,180924
1630935183814,21055,289835,180940
1630935183824,21045,289869,180939
1630935183834,21039,289840,180914
1630935183844,21034,289861,180895
1630935183854,21024,289839,180906
1630935183864,21013,289815,180891
1630935183874,21005,289834,180889
1630935183884,21015,289822,180909
1630935183894,21027,289829,180912
1630935183904,21021,289844,180907
1630935183914,21038,289824,180966
1630935183924,21074,289815,181037
1630935183934,21097,289819,181102
1630935183944,21072,289871,181049
1630935183954,21070,289845,181073
1630935183964,21111,289879,181155
1630935183974,21091,289861,181073
1630935183984,21072,289819,181032
1630935183994,21068,289844,181048
1630935184004,21056,289891,181064
1630935184014,21049,289924,181032
1630935184024,21032,289934,181026
1630935184034,21046,289957,181055
1630935184044,21086,289892,181156
1630935184054,21114,289895,181232
1630935184064,21147,289858,181265
1630935184074,21153,289829,181268
1630935184084,21163,289836,181275
1630935184094,21165,289793,181255
1630935184104,21151,289806,181234
1630935184114,21129,289843,181185
1630935184124,21094,289842,181142
1630935184134,21064,289852,181042
1630935184144,21023,289861,180962
1630935184154,20985,289852,180882
1630935184164,20959,289854,180828
1630935184174,20951,289863,180809
1630935184184,20937,289899,180767
1630935184194,20921,289936,180771
1630935184204,20926,289911,180785
1630935184214,20920,289883,180783
1630935184224,20929,289854,180803
1630935184234,20925,289882,180806
1630935184244,20935,289864,180829
1630935184254,20956,289852,180873
1630935184264,20965,289839,180894
1630935184274,20974,289865,180938
1630935184284,20984,289859,180973
1630935184294,20986,289828,180987
1630935184304,20987,289829,180970
1630935184314,20987,289805,180996
1630935184324,21001,289827,181041
1630935184334,21003,289850,181078
1630935184344,20974,289751,180992
1630935184354,20985,289831,181018
1630935184364,20975,289882,181020
1630935184374,20947,289897,180968
1630935184384,20929,289909,180946
1630935184394,20899,289892,180847
1630935184404,20885,289910,180816
1630935184414,20863,289929,180780
1630935184424,20864,289893,180792
1630935184434,20901,289875,180869
1630935184444,20934,289842,180926
1630935184454,20953,289792,180956
1630935184464,20953,289848,180952
1630935184474,20962,289789,180964
1630935184484,20988,289832,181038
1630935184494,20995,289791,181051
1630935184504,20982,289824,181034
1630935184514,20957,289814,180999
1630935184524,20915,289824,180898
1630935184534,20863,289817,180821
1630935184544,20847,289828,180765
1630935184554,20820,289774,180765
1630935184564,20808,289810,180769
1630935184574,20814,289781,180788
1630935184584,20808,289728,180831
1630935184594,20815,289748,180849
1630935184604,20812,289736,180867
1630935184614,20810,289720,180898
1630935184624,20805,289700,180888
1630935184634,20790,289691,180877
1630935184644,20775,289698,180843
1630935184654,20766,289718,180838
1630935184664,20749,289691,180823
1630935184674,20746,289704,180843
1630935184684,20758,289710,180874
1630935184694,20764,289706,180870
1630935184704,20770,289700,180898
1630935184714,20774,289698,180912
1630935184724,20785,289716,181016
1630935184734,20773,289851,181059
1630935184744,20777,289730,181084
1630935184754,20837,289726,181224
1630935184764,20850,289754,181197
1630935184774,20836,289696,181143
1630935184784,20832,289706,181132
1630935184794,20827,289724,181114
1630935184804,20794,289753,181022
1630935184814,20746,289822,180974
1630935184824,20717,289789,180908
1630935184834,20759,289730,181034
1630935184844,20794,289739,181163
1630935184854,20850,289687,181224
1630935184864,20886,289653,181273
1630935184874,20888,289634,181270
1630935184884,20883,289608,181255
1630935184894,20846,289611,181206
1630935184904,20794,289571,181112
1630935184914,20733,289579,180971
1630935184924,20668,289600,180823
1630935184934,20612,289622,180694
1630935184944,20575,289589,180616
1630935184954,20538,289585,180512
1630935184964,20514,289608,180441
1630935184974,20502,289593,180444
1630935184984,20480,289540,180377
1630935184994,20472,289606,180368
1630935185004,20478,289540,180424
1630935185014,20493,289562,180425
1630935185024,20494,289532,180440
1630935185034,20510,289495,180477
1630935185044,20527,289462,180525
1630935185054,20544,289477,180513
1630935185064,20551,289464,180559
1630935185074,20546,289463,180586
1630935185084,20542,289502,180544
1630935185094,20519,289469,180506
1630935185104,20506,289480,180473
1630935185114,20513,289446,180494
1630935185124,20505,289449,180480
1630935185134,20517,289467,180524
1630935185144,20509,289406,180487
1630935185154,20498,289405,180508
1630935185164,20497,289395,180473
1630935185174,20505,289396,180528
1630935185184,20500,289422,180501
1630935185194,20494,289434,180488
1630935185204,20474,289444,180474
1630935185214,20471,289402,180474
1630935185224,20491,289428,180495
1630935185234,20518,289388,180543
1630935185244,20537,289392,180573
1630935185254,20572,289351,180711
1630935185264,20600,289347,180791
1630935185274,20598,289380,180830
1630935185284,20585,289334,180785
1630935185294,20572,289277,180781
1630935185304,20542,289299,180728
1630935185314,20514,289313,180684
1630935185324,20491,289328,180646
1630935185334,20482,289342,180654
1630935185344,20464,289307,180639
1630935185354,20451,289306,180652
1630935185364,20452,289290,180670
1630935185374,20451,289349,180693
1630935185384,20452,289347,180693
1630935185394,20443,289314,180689
1630935185404,20433,289314,180677
1630935185414,20418,289302,180656
1630935185424,20401,289348,180628
1630935185434,20387,289343,180582
1630935185444,20378,289362,180558
1630935185454,20362,289362,180533
1630935185464,20371,289369,180530
1630935185474,20387,289323,180573
1630935185484,20380,289329,180589
1630935185494,20399,289303,180577
1630935185504,20404,289339,180615
1630935185514,20429,289351,180700
1630935185524,20385,289333,180601
1630935185534,20433,289321,180701
1630935185544,20448,289305,180702
1630935185554,20438,289273,180687
1630935185564,20436,289262,180650
1630935185574,20437,289280,180640
1630935185584,20419,289294,180576
1630935185594,20401,289333,180534
1630935185604,20361,289346,180449
1630935185614,20357,289408,180470
1630935185624,20379,289423,180530
1630935185634,20397,289364,180575
1630935185644,20449,289325,180664
1630935185654,20464,289329,180716
1630935185664,20460,289287,180745
1630935185674,20451,289260,180726
1630935185684,20435,289275,180704
1630935185694,20394,289250,180653
1630935185704,20370,289277,180591
1630935185714,20341,289250,180521
1630935185724,20303,289292,180452
1630935185734,20280,289309,180367
1630935185744,20266,289279,180337
1630935185754,20243,289285,180291
1630935185764,20228,289301,180222
1630935185774,20213,289330,180198
1630935185784,20193,289343,180124
1630935185794,20180,289382,180136
1630935185804,20195,289367,180093
1630935185814,20203,289347,180134
1630935185824,20236,289331,180178
1630935185834,20257,289357,180208
1630935185844,20288,289350,180299
1630935185854,20317,289344,180337
1630935185864,20337,289347,180404
1630935185874,20361,289364,180446
1630935185884,20378,289334,180492
1630935185894,20399,289349,180548
1630935185904,20392,289330,180557
1630935185914,20384,289333,180528
1630935185924,20385,289340,180516
1630935185934,20357,289343,180469
1630935185944,20348,289347,180469
1630935185954,20336,289336,180419
1630935185964,20338,289359,180374
1630935185974,20311,289386,180353
1630935185984,20287,289362,180294
1630935185994,20291,289351,180266
1630935186004,20305,289358,180277
1630935186014,20323,289338,180318
1630935186024,20338,289337,180361
1630935186034,20368,289314,180422
1630935186044,20388,289291,180479
1630935186054,20385,289286,180484
1630935186064,20386,289213,180460
1630935186074,20374,289247,180446
1630935186084,20359,289250,180441
1630935186094,20345,289257,180413
1630935186104,20330,289220,180395
1630935186114,20309,289281,180362
1630935186124,20299,289279,180330
1630935186134,20289,289281,180336
1630935186144,20282,289289,180365
1630935186154,20283,289281,180348
1630935186164,20277,289299,180373
1630935186174,20280,289243,180365
1630935186184,20278,289273,180332
1630935186194,20274,289266,180322
1630935186204,20283,289236,180327
1630935186214,20287,289268,180327
1630935186224,20286,289231,180317
1630935186234,20292,289240,180338
1630935186244,20304,289196,180379
1630935186254,20313,289207,180405
1630935186264,20325,289158,180413
1630935186274,20338,289139,180429
1630935186284,20345,289133,180447
1630935186294,20342,289146,180457
1630935186304,20321,289179,180409
1630935186314,20371,289123,180545
1630935186324,20391,289172,180531
1630935186334,20367,289138,180444
1630935186344,20353,289124,180377
1630935186354,20343,289191,180347
1630935186364,20332,289220,180324
1630935186374,20307,289313,180281
1630935186384,20263,289326,180176
1630935186394,20258,289331,180166
1630935186404,20290,289326,180261
1630935186414,20316,289289,180329
1630935186424,20339,289193,180371
1630935186434,20356,289200,180413
1630935186444,20369,289147,180442
1630935186454,20363,289126,180435
1630935186464,20351,289135,180404
1630935186474,20352,289165,180384
1630935186484,20330,289117,180367
1630935186494,20332,289131,180328
1630935186504,20291,289125,180238
1630935186514,20270,289210,180185
1630935186524,20248,289163,180127
1630935186534,20230,289209,180098
1630935186544,20212,289242,180030
1630935186554,20203,289197,179978
1630935186564,20187,289247,179930
1630935186574,20185,289258,179926
1630935186584,20198,289238,179951
1630935186594,20216,289255,179972
1630935186604,20239,289245,180017
1630935186614,20258,289269,180072
1630935186624,20282,289224,180095
1630935186634,20302,289221,180125
1630935186644,20317,289205,180167
1630935186654,20321,289200,180160
1630935186664,20334,289209,180194
1630935186674,20367,289183,180273
1630935186684,20386,289176,180325
1630935186694,20378,289118,180261
1630935186704,20391,289120,180308
1630935186714,20387,289181,180256
1630935186724,20361,289206,180229
1630935186734,20362,289201,180213
1630935186744,20356,289193,180175
1630935186754,20352,289207,180139
1630935186764,20346,289258,180112
1630935186774,20356,289191,180130
1630935186784,20377,289150,180216
1630935186794,20413,289122,180274
1630935186804,20434,289065,180317
1630935186814,20449,289094,180396
1630935186824,20455,289072,180429
1630935186834,20457,289076,180456
1630935186844,20448,289050,180404
1630935186854,20440,289121,180420
1630935186864,20428,289094,180373
1630935186874,20404,289102,180314
1630935186884,20382,289138,180250
1630935186894,20375,289148,180232
1630935186904,20366,289198,180232
1630935186914,20364,289205,180212
1630935186924,20374,289182,180253
1630935186934,20395,289202,180311
1630935186944,20410,289180,180347
1630935186954,20431,289194,180340
1630935186964,20425,289196,180358
1630935186974,20436,289194,180354
1630935186984,20436,289186,180377
1630935186994,20438,289166,180333
1630935187004,20436,289245,180354
1630935187014,20436,289229,180325
1630935187024,20434,289193,180338
1630935187034,20431,289183,180295
1630935187044,20441,289192,180283
1630935187054,20452,289202,180322
1630935187064,20474,289174,180334
1630935187074,20498,289163,180400
1630935187084,20521,289211,180418
1630935187094,20532,289186,180436
1630935187104,20529,289218,180415
1630935187114,20499,289214,180351
1630935187124,20548,289279,180472
1630935187134,20539,289290,180414
1630935187144,20522,289276,180337
1630935187154,20515,289312,180299
1630935187164,20521,289372,180284
1630935187174,20526,289355,180314
1630935187184,20526,289388,180331
1630935187194,20525,289349,180321
1630935187204,20549,289298,180405
1630935187214,20604,289293,180554
1630935187224,20655,289259,180653
1630935187234,20707,289257,180769
1630935187244,20732,289307,180890
1630935187254,20745,289280,180859
1630935187264,20733,289246,180853
1630935187274,20711,289297,180791
1630935187284,20679,289236,180717
1630935187294,20639,289300,180586
1630935187304,20598,289338,180450
1630935187314,20555,289346,180329
1630935187324,20524,289423,180280
1630935187334,20527,289415,180264
1630935187344,20548,289440,180291
1630935187354,20578,289391,180370
1630935187364,20624,289454,180486
1630935187374,20668,289391,180575
1630935187384,20723,289460,180699
1630935187394,20772,289489,180779
1630935187404,20817,289486,180850
1630935187414,20839,289566,180924
1630935187424,20855,289537,180930
1630935187434,20844,289550,180926
1630935187444,20849,289582,180943
1630935187454,20859,289599,180928
1630935187464,20870,289580,180940
1630935187474,20883,289607,180976
1630935187484,20893,289645,180963
1630935187494,20899,289713,181023
1630935187504,20859,289626,180898
1630935187514,20850,289669,180880
1630935187524,20849,289697,180876
1630935187534,20832,289743,180882
1630935187544,20826,289752,180864
1630935187554,20825,289778,180846
1630935187564,20845,289709,180885
1630935187574,20878,289671,180977
1630935187584,20937,289692,181108
1630935187594,21000,289664,181219
1630935187604,21051,289672,181341
1630935187614,21072,289719,181430
1630935187624,21069,289748,181423
1630935187634,21064,289687,181450
1630935187644,21068,289735,181487
1630935187654,21078,289752,181501
1630935187664,21068,289744,181433
1630935187674,21049,289755,181408
1630935187684,21044,289768,181394
1630935187694,21056,289804,181409
1630935187704,21051,289812,181424
1630935187714,21049,289823,181401
1630935187724,21047,289827,181394
1630935187734,21050,289809,181397
1630935187744,21055,289881,181404
1630935187754,21056,289890,181393
1630935187764,21066,289897,181389
1630935187774,21047,289941,181375
1630935187784,21057,289930,181379
1630935187794,21062,289901,181374
1630935187804,21067,289946,181401
1630935187814,21072,289921,181411
1630935187824,21071,290023,181408
1630935187834,21071,290006,181431
1630935187844,21073,290047,181397
1630935187854,21080,290033,181412
1630935187864,21072,290042,181382
1630935187874,21067,290112,181378
1630935187884,21014,290126,181243
1630935187894,20972,290129,181119
1630935187904,20967,290122,181080
1630935187914,20991,290186,181191
1630935187924,21058,290213,181349
1630935187934,21061,290174,181320
1630935187944,21048,290163,181315
1630935187954,21033,290126,181271
1630935187964,21020,290167,181261
1630935187974,21013,290115,181212
1630935187984,21004,290120,181181
1630935187994,20985,290149,181121
1630935188004,20970,290168,181124
1630935188014,20943,290169,181102
1630935188024,20922,290072,181054
1630935188034,20942,290048,181103
1630935188044,20969,289960,181105
1630935188054,20977,289914,181101
1630935188064,20976,289909,181078
1630935188074,20955,289871,181016
1630935188084,20926,289918,180940
1630935188094,20929,289897,180902
1630935188104,20907,289908,180855
1630935188114,20904,289948,180825
1630935188124,20902,289991,180819
1630935188134,20904,289955,180823
1630935188144,20911,289986,180825
1630935188154,20906,289917,180784
1630935188164,20901,289926,180789
1630935188174,20910,289904,180790
1630935188184,20902,289903,180742
1630935188194,20887,289923,180670
1630935188204,20864,289921,180605
1630935188214,20843,289906,180517
1630935188224,20832,289903,180457
1630935188234,20817,289847,180351
1630935188244,20804,289866,180288
1630935188254,20778,289835,180227
1630935188264,20778,289870,180204
1630935188274,20774,289843,180198
1630935188284,20788,289899,180226
1630935188294,20832,289954,180370
1630935188304,20882,289954,180512
1630935188314,20894,289906,180557
1630935188324,20905,289969,180610
1630935188334,20892,289982,180594
1630935188344,20904,289984,180686
1630935188354,20899,289932,180640
1630935188364,20873,289905,180563
1630935188374,20851,289925,180539
1630935188384,20852,289937,180540
1630935188394,20876,289845,180576
1630935188404,20905,289778,180608
1630935188414,20929,289738,180651
1630935188424,20925,289759,180687
1630935188434,20926,289802,180671
1630935188444,20925,289744,180679
1630935188454,20918,289756,180694
1630935188464,20912,289816,180641
1630935188474,20899,289785,180603
1630935188484,20883,289773,180542
1630935188494,20862,289783,180494
1630935188504,20856,289800,180453
1630935188514,20843,289809,180420
1630935188524,20827,289842,180416
1630935188534,20830,289820,180376
1630935188544,20830,289845,180378
1630935188554,20833,289828,180415
1630935188564,20851,289891,180392
1630935188574,20860,289834,180380
1630935188584,20848,289852,180384
1630935188594,20840,289804,180335
1630935188604,20833,289800,180328
1630935188614,20829,289863,180300
1630935188624,20841,289785,180293
1630935188634,20851,289806,180323
1630935188644,20854,289824,180306
1630935188654,20862,289822,180311
1630935188664,20857,289852,180317
1630935188674,20870,289844,180324
1630935188684,20903,289935,180433
1630935188694,20913,289893,180447
1630935188704,20940,289905,180542
1630935188714,20954,289853,180572
1630935188724,20939,289830,180562
1630935188734,20916,289874,180517
1630935188744,20909,289877,180491
1630935188754,20897,289877,180465
1630935188764,20883,289873,180463
1630935188774,20864,289841,180446
1630935188784,20868,289849,180439
1630935188794,20904,289797,180541
1630935188804,20936,289761,180611
1630935188814,20972,289757,180698
1630935188824,20987,289726,180729
1630935188834,20990,289706,180728
1630935188844,20997,289716,180760
1630935188854,20994,289731,180728
1630935188864,20978,289739,180660
1630935188874,20953,289761,180617
1630935188884,20913,289820,180545
1630935188894,20909,289838,180533
1630935188904,20904,289847,180494
1630935188914,20907,289900,180526
1630935188924,20911,289903,180571
1630935188934,20943,289910,180631
1630935188944,20969,289936,180676
1630935188954,20985,289902,180718
1630935188964,21002,289912,180726
1630935188974,21009,289872,180734
1630935188984,21014,289885,180762
1630935188994,21026,289879,180765
1630935189004,21034,289865,180750
1630935189014,21025,289842,180722
1630935189024,21010,289874,180689
1630935189034,20994,289905,180665
1630935189044,20987,289927,180642
1630935189054,20982,289913,180589
1630935189064,20982,289955,180646
1630935189074,21007,289975,180757
1630935189084,20991,289901,180747
1630935189094,20987,289858,180746
1630935189104,20977,289810,180759
1630935189114,20942,289801,180703
1630935189124,20915,289813,180670
1630935189134,20898,289777,180610
1630935189144,20886,289732,180551
1630935189154,20888,289737,180576
1630935189164,20895,289668,180570
1630935189174,20910,289571,180580
1630935189184,20924,289554,180636
1630935189194,20947,289528,180675
1630935189204,20984,289549,180785
1630935189214,20992,289536,180857
1630935189224,20981,289550,180862
1630935189234,20982,289550,180821
1630935189244,20963,289549,180785
1630935189254,20933,289550,180756
1630935189264,20911,289518,180714
1630935189274,20895,289572,180711
1630935189284,20872,289586,180672
1630935189294,20854,289609,180620
1630935189304,20842,289619,180603
1630935189314,20841,289574,180580
1630935189324,20836,289608,180583
1630935189334,20835,289613,180558
1630935189344,20841,289535,180560
1630935189354,20841,289555,180562
1630935189364,20827,289485,180565
1630935189374,20847,289494,180547
1630935189384,20832,289454,180510
1630935189394,20834,289484,180524
1630935189404,20824,289490,180519
1630935189414,20828,289423,180511
1630935189424,20818,289414,180461
1630935189434,20811,289424,180423
1630935189444,20800,289416,180393
1630935189454,20790,289420,180399
1630935189464,20757,289361,180362
1630935189474,20728,289228,180295
1630935189484,20728,289216,180281
1630935189494,20713,289163,180247
1630935189504,20697,289103,180189
1630935189514,20692,289083,180169
1630935189524,20681,289075,180163
1630935189534,20670,289103,180153
1630935189544,20657,289100,180125
1630935189554,20640,289035,180092
1630935189564,20645,289014,180092
1630935189574,20665,288957,180143
1630935189584,20676,288920,180184
1630935189594,20683,288900,180201
1630935189604,20689,288893,180231
1630935189614,20689,288834,180236
1630935189624,20681,288821,180196
1630935189634,20667,288811,180131
1630935189644,20653,288849,180080
1630935189654,20636,288866,180029
1630935189664,20610,288897,179931
1630935189674,20562,288915,179803
1630935189684,20519,288942,179733
1630935189694,20492,288967,179594
1630935189704,20467,288969,179528
1630935189714,20442,289035,179463
1630935189724,20448,289076,179472
1630935189734,20464,289009,179493
1630935189744,20482,289011,179518
1630935189754,20506,288989,179535
1630935189764,20522,288988,179591
1630935189774,20537,289004,179595
1630935189784,20542,288988,179583
1630935189794,20546,288957,179603
1630935189804,20545,288985,179603
1630935189814,20553,289009,179641
1630935189824,20564,288992,179668
1630935189834,20568,288983,179705
1630935189844,20567,289082,179764
1630935189854,20527,288946,179689
1630935189864,20553,288903,179785
1630935189874,20548,288904,179782
1630935189884,20532,288873,179790
1630935189894,20529,288822,179787
1630935189904,20521,288858,179785
1630935189914,20523,288843,179801
1630935189924,20527,288871,179854
1630935189934,20528,288849,179899
1630935189944,20557,288839,179961
1630935189954,20607,288766,180106
1630935189964,20642,288791,180246
1630935189974,20669,288820,180317
1630935189984,20687,288731,180404
1630935189994,20689,288801,180409
1630935190004,20689,288819,180384
1630935190014,20666,288820,180319
1630935190024,20648,288829,180257
1630935190034,20621,288844,180189
1630935190044,20590,288838,180119
1630935190054,20568,288839,180056
1630935190064,20554,288845,180022
1630935190074,20547,288924,179998
1630935190084,20537,288890,179969
1630935190094,20535,288911,179937
1630935190104,20520,288962,179908
1630935190114,20506,288943,179836
1630935190124,20489,288968,179795
1630935190134,20480,289006,179767
1630935190144,20491,289064,179751
1630935190154,20490,289042,179756
1630935190164,20497,289047,179758
1630935190174,20494,289043,179752
1630935190184,20508,289063,179715
1630935190194,20512,289089,179755
1630935190204,20514,289110,179768
1630935190214,20511,289103,179798
1630935190224,20517,289176,179832
1630935190234,20519,289172,179907
1630935190244,20516,289135,179960
1630935190254,20546,289040,180071
1630935190264,20579,289005,180143
1630935190274,20577,288959,180157
1630935190284,20563,288876,180135
1630935190294,20559,288931,180129
1630935190304,20547,288878,180124
1630935190314,20519,288902,180060
1630935190324,20507,288908,180074
1630935190334,20540,288847,180180
1630935190344,20580,288846,180289
1630935190354,20617,288816,180408
1630935190364,20608,288788,180425
1630935190374,20618,288751,180415
1630935190384,20601,288796,180393
1630935190394,20598,288775,180351
1630935190404,20578,288733,180323
1630935190414,20559,288790,180237
1630935190424,20535,288758,180165
1630935190434,20507,288756,180079
1630935190444,20488,288772,180027
1630935190454,20472,288828,179939
1630935190464,20453,288764,179888
1630935190474,20458,288818,179879
1630935190484,20456,288811,179858
1630935190494,20461,288859,179821
1630935190504,20461,288851,179818
1630935190514,20473,288856,179856
1630935190524,20476,288853,179834
1630935190534,20480,288893,179820
1630935190544,20469,288909,179817
1630935190554,20473,288863,179830
1630935190564,20474,288921,179854
1630935190574,20481,288946,179882
1630935190584,20474,288943,179895
1630935190594,20459,288914,179879
1630935190604,20486,288913,179991
1630935190614,20492,288894,180050
1630935190624,20494,288853,180105
1630935190634,20489,288794,180054
1630935190644,20465,288732,180031
1630935190654,20456,288763,180042
1630935190664,20461,288789,180124
1630935190674,20452,288735,180171
1630935190684,20476,288696,180224
1630935190694,20482,288641,180252
1630935190704,20493,288610,180289
1630935190714,20493,288611,180314
1630935190724,20501,288634,180330
1630935190734,20487,288561,180317
1630935190744,20463,288613,180258
1630935190754,20432,288600,180186
1630935190764,20400,288578,180114
1630935190774,20364,288578,180008
1630935190784,20335,288644,179921
1630935190794,20313,288620,179865
1630935190804,20312,288693,179841
1630935190814,20321,288622,179861
1630935190824,20325,288596,179837
1630935190834,20328,288616,179857
1630935190844,20324,288578,179856
1630935190854,20338,288616,179839
1630935190864,20336,288625,179832
1630935190874,20331,288650,179802
1630935190884,20326,288638,179773
1630935190894,20315,288632,179763
1630935190904,20304,288656,179719
1630935190914,20299,288687,179730
1630935190924,20299,288710,179702
1630935190934,20306,288614,179716
1630935190944,20310,288627,179682
1630935190954,20313,288668,179709
1630935190964,20282,288712,179665
1630935190974,20265,288664,179668
1630935190984,20301,288672,179752
1630935190994,20316,288665,179797
1630935191004,20301,288611,179779
1630935191014,20272,288594,179736
1630935191024,20245,288636,179669
1630935191034,20199,288666,179624
1630935191044,20168,288708,179577
1630935191054,20131,288692,179520
1630935191064,20138,288639,179544
1630935191074,20169,288592,179632
1630935191084,20213,288575,179735
1630935191094,20252,288485,179820
1630935191104,20283,288431,179914
1630935191114,20310,288422,179991
1630935191124,20330,288437,180027
1630935191134,20326,288371,180029
1630935191144,20317,288378,179982
1630935191154,20282,288408,179898
1630935191164,20248,288427,179782
1630935191174,20205,288457,179665
1630935191184,20161,288542,179587
1630935191194,20119,288528,179459
1630935191204,20100,288568,179390
1630935191214,20093,288563,179366
1630935191224,20100,288606,179331
1630935191234,20105,288608,179341
1630935191244,20112,288628,179336
1630935191254,20129,288608,179344
1630935191264,20150,288594,179374
1630935191274,20162,288622,179405
1630935191284,20173,288619,179435
1630935191294,20189,288649,179451
1630935191304,20209,288652,179509
1630935191314,20233,288669,179567
1630935191324,20244,288721,179638
1630935191334,20236,288733,179645
1630935191344,20245,288692,179716
1630935191354,20284,288701,179826
1630935191364,20314,288624,179908
1630935191374,20337,288664,179951
1630935191384,20323,288634,179917
1630935191394,20294,288643,179868
1630935191404,20282,288653,179930
1630935191414,20259,288606,179901
1630935191424,20237,288533,179843
1630935191434,20228,288454,179765
1630935191444,20217,288424,179758
1630935191454,20221,288463,179752
1630935191464,20224,288447,179768
1630935191474,20217,288391,179747
1630935191484,20209,288393,179717
1630935191494,20199,288439,179683
1630935191504,20185,288486,179668
1630935191514,20171,288494,179646
1630935191524,20166,288473,179618
1630935191534,20159,288505,179608
1630935191544,20155,288493,179574
1630935191554,20161,288500,179588
1630935191564,20167,288524,179597
1630935191574,20178,288556,179619
1630935191584,20178,288554,179604
1630935191594,20182,288557,179594
1630935191604,20184,288593,179595
1630935191614,20187,288602,179605
1630935191624,20187,288638,179587
1630935191634,20184,288620,179556
1630935191644,20182,288628,179566
1630935191654,20185,288656,179532
1630935191664,20191,288625,179541
1630935191674,20198,288668,179509
1630935191684,20205,288706,179537
1630935191694,20182,288686,179534
1630935191704,20159,288753,179477
1630935191714,20199,288715,179607
1630935191724,20240,288687,179676
1630935191734,20275,288652,179745
1630935191744,20313,288636,179811
1630935191754,20339,288650,179879
1630935191764,20342,288686,179932
1630935191774,20321,288735,179899
1630935191784,20283,288703,179828
1630935191794,20262,288705,179870
1630935191804,20273,288652,179886
1630935191814,20307,288630,179945
1630935191824,20324,288637,179980
1630935191834,20349,288563,180052
1630935191844,20362,288602,180068
1630935191854,20370,288599,180104
1630935191864,20370,288545,180086
1630935191874,20354,288553,180048
1630935191884,20332,288564,179992
1630935191894,20307,288571,179897
1630935191904,20279,288581,179809
1630935191914,20253,288545,179727
1630935191924,20232,288580,179644
1630935191934,20215,288613,179584
1630935191944,20203,288671,179538
1630935191954,20199,288594,179499
1630935191964,20198,288638,179498
1630935191974,20218,288666,179503
1630935191984,20233,288629,179477
1630935191994,20245,288684,179487
1630935192004,20254,288684,179525
1630935192014,20274,288665,179542
1630935192024,20281,288714,179531
1630935192034,20284,288701,179535
1630935192044,20285,288692,179521
1630935192054,20284,288718,179578
1630935192064,20290,288789,179621
1630935192074,20284,288798,179607
1630935192084,20319,288734,179702
1630935192094,20343,288768,179771
1630935192104,20372,288769,179874
1630935192114,20410,288793,179927
1630935192124,20429,288744,179957
1630935192134,20437,288735,179992
1630935192144,20439,288803,180114
1630935192154,20456,288849,180219
1630935192164,20484,288863,180318
1630935192174,20493,288785,180323
1630935192184,20496,288791,180332
1630935192194,20496,288800,180342
1630935192204,20488,288755,180333
1630935192214,20478,288759,180282
1630935192224,20460,288787,180289
1630935192234,20447,288807,180223
1630935192244,20436,288742,180195
1630935192254,20426,288773,180159
1630935192264,20413,288798,180127
1630935192274,20409,288803,180143
1630935192284,20408,288794,180143
1630935192294,20428,288815,180169
1630935192304,20433,288808,180202
1630935192314,20439,288810,180158
1630935192324,20441,288809,180157
1630935192334,20434,288813,180140
1630935192344,20431,288840,180105
1630935192354,20430,288825,180068
1630935192364,20416,288803,180017
1630935192374,20399,288864,179967
1630935192384,20388,288880,179945
1630935192394,20388,288882,179895
1630935192404,20392,288872,179914
1630935192414,20391,288819,179889
1630935192424,20399,288860,179879
1630935192434,20416,288887,179850
1630935192444,20408,288952,179903
1630935192454,20381,288906,179906
1630935192464,20415,288961,180013
1630935192474,20458,288970,180074
1630935192484,20490,288910,180113
1630935192494,20498,288848,180127
1630935192504,20502,288870,180142
1630935192514,20496,288910,180137
1630935192524,20498,288939,180156
1630935192534,20473,288950,180102
1630935192544,20463,288943,180073
1630935192554,20474,288917,180085
1630935192564,20483,288898,180121
1630935192574,20501,288833,180155
1630935192584,20518,288801,180191
1630935192594,20533,288825,180204
1630935192604,20549,288796,180256
1630935192614,20539,288758,180226
1630935192624,20510,288732,180131
1630935192634,20501,288733,180080
1630935192644,20520,288734,180113
1630935192654,20516,288725,180095
1630935192664,20493,288737,180017
1630935192674,20478,288706,179944
1630935192684,20467,288736,179906
1630935192694,20450,288750,179880
1630935192704,20435,288760,179745
1630935192714,20416,288733,179688
1630935192724,20406,288760,179669
1630935192734,20404,288788,179650
1630935192744,20410,288781,179631
1630935192754,20423,288776,179642
1630935192764,20425,288790,179631
1630935192774,20430,288780,179643
1630935192784,20437,288822,179640
1630935192794,20448,288875,179658
1630935192804,20434,288874,179677
1630935192814,20420,288834,179619
1630935192824,20420,288867,179644
1630935192834,20415,288821,179635
1630935192844,20435,288818,179709
1630935192854,20470,288813,179774
1630935192864,20502,288763,179832
1630935192874,20521,288731,179856
1630935192884,20531,288680,179886
1630935192894,20534,288705,179891
1630935192904,20568,288668,179943
1630935192914,20599,288668,179976
1630935192924,20598,288684,179966
1630935192934,20607,288667,179992
1630935192944,20621,288672,180068
1630935192954,20644,288708,180077
1630935192964,20636,288697,180125
1630935192974,20636,288674,180119
1630935192984,20616,288700,180050
1630935192994,20588,288715,179967
1630935193004,20550,288803,179862
1630935193014,20534,288774,179838
1630935193024,20522,288800,179839
1630935193034,20520,288850,179799
1630935193044,20521,288831,179828
1630935193054,20525,288855,179813
1630935193064,20542,288794,179863
1630935193074,20562,288848,179870
1630935193084,20589,288840,179916
1630935193094,20605,288834,179984
1630935193104,20628,288859,179967
1630935193114,20626,288917,179960
1630935193124,20605,288954,179937
1630935193134,20595,288973,179881
1630935193144,20593,289023,179893
1630935193154,20591,288984,179894
1630935193164,20592,288998,179864
1630935193174,20597,289010,179867
1630935193184,20595,289072,179901
1630935193194,20554,289013,179784
1630935193204,20566,289009,179848
1630935193214,20610,288974,179925
1630935193224,20625,288986,179930
1630935193234,20643,288893,179971
1630935193244,20674,288946,180020
1630935193254,20680,288960,180052
1630935193264,20687,289019,180023
1630935193274,20646,289019,179960
1630935193284,20625,289004,179902
1630935193294,20639,288992,179919
1630935193304,20662,288982,179943
1630935193314,20694,288955,179997
1630935193324,20724,288975,180076
1630935193334,20727,288869,180098
1630935193344,20717,288913,180065
1630935193354,20712,288880,180076
1630935193364,20703,288915,180062
1630935193374,20702,288903,180038
1630935193384,20702,288910,180003
1630935193394,20692,288947,180012
1630935193404,20686,288964,179989
1630935193414,20690,288985,179983
1630935193424,20680,289017,179976
1630935193434,20692,289029,179987
1630935193444,20700,289064,179985
1630935193454,20694,289048,179952
1630935193464,20697,289051,179947
1630935193474,20699,289090,179935
1630935193484,20707,289137,179947
1630935193494,20730,289113,179982
1630935193504,20740,289150,179987
1630935193514,20757,289082,180025
1630935193524,20764,289122,179995
1630935193534,20770,289124,180020
1630935193544,20780,289156,180052
1630935193554,20783,289227,180132
1630935193564,20758,289156,180084
1630935193574,20770,289153,180141
1630935193584,20791,289159,180180
1630935193594,20787,289150,180171
1630935193604,20812,289121,180216
1630935193614,20825,289094,180227
1630935193624,20819,289032,180179
1630935193634,20824,289072,180241
1630935193644,20835,289118,180294
1630935193654,20846,289017,180302
1630935193664,20860,289036,180286
1630935193674,20857,289019,180314
1630935193684,20871,289039,180356
1630935193694,20895,289015,180442
1630935193704,20912,289029,180441
1630935193714,20921,289029,180477
1630935193724,20904,289013,180448
1630935193734,20890,289040,180406
1630935193744,20853,289000,180323
1630935193754,20843,289068,180291
1630935193764,20828,289072,180236
1630935193774,20800,289089,180192
1630935193784,20798,289083,180187
1630935193794,20777,289116,180142
1630935193804,20782,289149,180166
1630935193814,20795,289143,180177
1630935193824,20800,289095,180179
1630935193834,20809,289093,180180
1630935193844,20818,289140,180173
1630935193854,20814,289145,180170
1630935193864,20811,289135,180139
1630935193874,20809,289127,180149
1630935193884,20815,289142,180165
1630935193894,20836,289141,180159
1630935193904,20834,289073,180219
1630935193914,20846,289105,180171
1630935193924,20850,289108,180209
1630935193934,20836,289103,180156
1630935193944,20797,289054,180098
1630935193954,20809,289046,180142
1630935193964,20808,289061,180117
1630935193974,20782,289043,180010
1630935193984,20763,289019,179931
1630935193994,20745,289037,179885
1630935194004,20729,289027,179847
1630935194014,20713,289032,179776
1630935194024,20661,289041,179654
1630935194034,20648,288982,179610
1630935194044,20654,288963,179601
1630935194054,20692,288918,179638
1630935194064,20721,288916,179727
1630935194074,20763,288924,179752
1630935194084,20766,288908,179828
1630935194094,20791,288891,179846
1630935194104,20800,288831,179852
1630935194114,20801,288827,179814
1630935194124,20772,288850,179775
1630935194134,20755,288830,179722
1630935194144,20748,288840,179711
1630935194154,20729,288800,179645
1630935194164,20710,288802,179604
1630935194174,20705,288842,179558
1630935194184,20699,288847,179548
1630935194194,20704,288830,179533
1630935194204,20693,288859,179508
1630935194214,20692,288831,179496
1630935194224,20689,288854,179483
1630935194234,20698,288887,179458
1630935194244,20700,288853,179459
1630935194254,20700,288892,179457
1630935194264,20714,288889,179472
1630935194274,20727,288860,179465
1630935194284,20732,288912,179479
1630935194294,20734,288906,179475
1630935194304,20737,288956,179506
1630935194314,20694,288940,179425
1630935194324,20668,288894,179381
1630935194334,20681,288887,179437
1630935194344,20687,288844,179462
1630935194354,20711,288853,179557
1630935194364,20755,288820,179628
1630935194374,20759,288785,179587
1630935194384,20768,288767,179651
1630935194394,20775,288769,179681
1630935194404,20793,288712,179700
1630935194414,20806,288691,179735
1630935194424,20832,288725,179759
1630935194434,20849,288721,179810
1630935194444,20881,288756,179877
1630935194454,20901,288764,179893
1630935194464,20902,288699,179851
1630935194474,20879,288661,179773
1630935194484,20845,288637,179676
1630935194494,20803,288602,179548
1630935194504,20765,288626,179428
1630935194514,20718,288625,179339
1630935194524,20693,288569,179251
1630935194534,20678,288615,179198
1630935194544,20644,288594,179109
1630935194554,20614,288579,179052
1630935194564,20589,288593,178982
1630935194574,20582,288605,178926
1630935194584,20571,288616,178924
1630935194594,20590,288629,178940
1630935194604,20616,288636,178967
1630935194614,20633,288659,179037
1630935194624,20654,288653,179109
1630935194634,20683,288676,179166
1630935194644,20723,288679,179288
1630935194654,20752,288706,179366
1630935194664,20778,288726,179430
1630935194674,20792,288794,179476
1630935194684,20790,288871,179536
1630935194694,20740,288874,179504
1630935194704,20724,288865,179476
1630935194714,20763,288862,179651
1630935194724,20793,288830,179712
1630935194734,20819,288812,179756
1630935194744,20829,288774,179772
1630935194754,20843,288802,179771
1630935194764,20834,288866,179782
1630935194774,20810,288864,179733
1630935194784,20807,288874,179724
1630935194794,20840,288881,179819
1630935194804,20886,288845,179908
1630935194814,20939,288892,180026
1630935194824,20981,288838,180145
1630935194834,21033,288880,180292
1630935194844,21079,288928,180406
1630935194854,21087,288934,180428
1630935194864,21091,288909,180442
1630935194874,21073,288956,180430
1630935194884,21035,288931,180380
1630935194894,21001,288920,180248
1630935194904,20943,288945,180117
1630935194914,20864,288954,179925
1630935194924,20819,288974,179812
1630935194934,20806,288980,179782
1630935194944,20809,288926,179789
1630935194954,20830,288942,179840
1630935194964,20843,288973,179857
1630935194974,20860,288934,179883
1630935194984,20875,288956,179906
1630935194994,20893,289025,179946
1630935195004,20895,288949,179973
1630935195014,20878,288997,179937
1630935195024,20867,288994,179886
1630935195034,20848,288995,179912
1630935195044,20834,289049,179881
1630935195054,20821,289083,179880
1630935195064,20786,289072,179832
1630935195074,20756,289021,179775
1630935195084,20775,288985,179851
1630935195094,20778,288967,179865
1630935195104,20794,288928,179915
1630935195114,20821,288895,179980
1630935195124,20841,288882,180009
1630935195134,20863,288865,180060
1630935195144,20866,288858,180127
1630935195154,20879,288837,180157
1630935195164,20908,288811,180252
1630935195174,20942,288824,180282
1630935195184,20954,288799,180305
1630935195194,20949,288778,180317
1630935195204,20942,288839,180287
1630935195214,20931,288830,180218
1630935195224,20900,288825,180176
1630935195234,20869,288809,180083
1630935195244,20840,288822,180026
1630935195254,20807,288831,179929
1630935195264,20765,288742,179870
1630935195274,20762,288710,179868
1630935195284,20754,288693,179876
1630935195294,20766,288642,179912
1630935195304,20776,288637,179934
1630935195314,20775,288651,179971
1630935195324,20769,288648,179972
1630935195334,20762,288658,179937
1630935195344,20733,288641,179886
1630935195354,20708,288665,179823
1630935195364,20679,288691,179782
1630935195374,20662,288684,179728
1630935195384,20637,288710,179695
1630935195394,20614,288659,179632
1630935195404,20565,288689,179523
1630935195414,20530,288700,179423
1630935195424,20488,288700,179333
1630935195434,20476,288707,179340
1630935195444,20460,288769,179358
1630935195454,20395,288720,179214
1630935195464,20408,288636,179300
1630935195474,20468,288580,179404
1630935195484,20510,288516,179494
1630935195494,20543,288579,179652
1630935195504,20596,288684,179821
1630935195514,20632,288856,180023
1630935195524,20655,289024,180271
1630935195534,20668,289175,180401
1630935195544,20686,289197,180450
1630935195554,20705,289249,180559
1630935195564,20731,289303,180603
1630935195574,20754,289327,180648
1630935195584,20764,289336,180647
1630935195594,20765,289321,180624
1630935195604,20762,289317,180604
1630935195614,20758,289292,180551
1630935195624,20746,289248,180515
1630935195634,20735,289178,180435
1630935195644,20710,289178,180388
1630935195654,20696,289175,180346
1630935195664,20676,289163,180274
1630935195674,20645,289144,180176
1630935195684,20594,289159,180055
1630935195694,20547,289155,179949
1630935195704,20495,289176,179780
1630935195714,20452,289141,179641
1630935195724,20409,289139,179569
1630935195734,20389,289128,179459
1630935195744,20358,289170,179353
1630935195754,20318,289118,179217
1630935195764,20276,289172,179089
1630935195774,20223,289150,178938
1630935195784,20187,289161,178823
1630935195794,20170,289188,178748
1630935195804,20175,289164,178768
1630935195814,20188,289157,178798
1630935195824,20192,289183,178809
1630935195834,20158,289201,178779
1630935195844,20140,289190,178806
1630935195854,20207,289163,178971
1630935195864,20226,289088,178972
1630935195874,20207,289053,178911
1630935195884,20177,289066,178817
1630935195894,20175,289097,178820
1630935195904,20168,289139,178804
1630935195914,20157,289166,178781
1630935195924,20191,289138,178856
1630935195934,20258,289040,179001
1630935195944,20289,288972,179043
1630935195954,20293,288919,179014
1630935195964,20294,288914,179017
1630935195974,20304,288924,178966
1630935195984,20304,288908,178956
1630935195994,20304,288951,178931
1630935196004,20315,288960,178920
1630935196014,20305,288914,178924
1630935196024,20292,289003,178875
1630935196034,20264,288946,178807
1630935196044,20218,289020,178698
1630935196054,20179,288975,178578
1630935196064,20129,288980,178495
1630935196074,20084,289068,178375
1630935196084,20059,289011,178289
1630935196094,20039,289071,178274
1630935196104,20033,289014,178261
1630935196114,20022,289049,178226
1630935196124,20014,289082,178225
1630935196134,20024,289035,178251
1630935196144,20054,289074,178344
1630935196154,20111,289046,178470
1630935196164,20142,289050,178579
1630935196174,20195,289044,178753
1630935196184,20272,289099,178983
1630935196194,20335,289125,179161
1630935196204,20400,289202,179381
1630935196214,20463,289263,179624
1630935196224,20542,289271,179883
1630935196234,20612,289320,180075
1630935196244,20677,289385,180298
1630935196254,20695,289425,180388
1630935196264,20691,289449,180426
1630935196274,20684,289540,180429
1630935196284,20675,289570,180438
1630935196294,20671,289637,180455
1630935196304,20664,289646,180455
1630935196314,20669,289569,180448
1630935196324,20678,289602,180440
1630935196334,20665,289614,180421
1630935196344,20674,289549,180384
1630935196354,20672,289526,180362
1630935196364,20680,289548,180366
1630935196374,20715,289511,180430
1630935196384,20756,289570,180563
1630935196394,20801,289591,180682
1630935196404,20844,289557,180794
1630935196414,20870,289548,180898
1630935196424,20880,289555,180937
1630935196434,20870,289525,180915
1630935196444,20856,289484,180876
1630935196454,20830,289491,180842
1630935196464,20826,289416,180855
1630935196474,20845,289392,180941
1630935196484,20871,289396,181055
1630935196494,20899,289343,181155
1630935196504,20904,289396,181186
1630935196514,20872,289373,181123
1630935196524,20847,289327,181084
1630935196534,20812,289350,180975
1630935196544,20775,289313,180908
1630935196554,20760,289304,180871
1630935196564,20735,289326,180848
1630935196574,20673,289380,180753
1630935196584,20606,289352,180597
1630935196594,20625,289329,180671
1630935196604,20650,289274,180767
1630935196614,20664,289281,180851
1630935196624,20659,289268,180806
1630935196634,20654,289257,180788
1630935196644,20644,289291,180789
1630935196654,20629,289321,180794
1630935196664,20631,289283,180804
1630935196674,20668,289238,180866
1630935196684,20709,289170,180971
1630935196694,20761,289125,181063
1630935196704,20810,289131,181115
1630935196714,20830,289063,181212
1630935196724,20850,289058,181215
1630935196734,20848,289036,181180
1630935196744,20816,289014,181091
1630935196754,20772,289028,180948
1630935196764,20715,289034,180791
1630935196774,20654,289012,180615
1630935196784,20575,289027,180414
1630935196794,20506,288997,180237
1630935196804,20432,288946,180093
1630935196814,20378,288983,179989
1630935196824,20350,288967,179928
1630935196834,20329,288911,179905
1630935196844,20330,288882,179892
1630935196854,20330,288878,179925
1630935196864,20329,288871,179877
1630935196874,20313,288801,179847
1630935196884,20301,288806,179806
1630935196894,20291,288831,179808
1630935196904,20280,288816,179809
1630935196914,20272,288811,179768
1630935196924,20263,288801,179738
1630935196934,20254,288781,179681
1630935196944,20260,288786,179730
1630935196954,20251,288838,179770
1630935196964,20267,288840,179868
1630935196974,20300,288775,179964
1630935196984,20326,288724,179983
1630935196994,20328,288646,179963
1630935197004,20352,288633,179974
1630935197014,20353,288655,179991
1630935197024,20338,288579,180006
1630935197034,20339,288571,180001
1630935197044,20323,288560,179967
1630935197054,20323,288508,179936
1630935197064,20352,288474,179937
1630935197074,20366,288403,179942
1630935197084,20374,288383,179913
1630935197094,20381,288334,179873
1630935197104,20400,288331,179897
1630935197114,20435,288325,179976
1630935197124,20478,288343,180054
1630935197134,20513,288324,180167
1630935197144,20563,288417,180270
1630935197154,20594,288387,180351
1630935197164,20624,288425,180426
1630935197174,20629,288400,180461
1630935197184,20616,288400,180435
1630935197194,20568,288370,180350
1630935197204,20518,288356,180240
1630935197214,20469,288372,180114
1630935197224,20428,288369,180048
1630935197234,20391,288380,179948
1630935197244,20357,288359,179841
1630935197254,20321,288307,179730
1630935197264,20281,288301,179624
1630935197274,20224,288328,179486
1630935197284,20180,288323,179363
1630935197294,20125,288312,179253
1630935197304,20081,288384,179134
1630935197314,20052,288380,179060
1630935197324,20011,288374,178964
1630935197334,19935,288387,178832
1630935197344,19962,288344,178855
1630935197354,19964,288285,178830
1630935197364,19955,288340,178801
1630935197374,19949,288303,178771
1630935197384,19947,288316,178786
1630935197394,19968,288324,178823
1630935197404,19983,288334,178902
1630935197414,20017,288316,179018
1630935197424,20100,288292,179151
1630935197434,20195,288221,179391
1630935197444,20304,288236,179619
1630935197454,20415,288334,179918
1630935197464,20533,288450,180233
1630935197474,20719,288504,180774
1630935197484,20836,288668,181086
1630935197494,20898,288713,181249
1630935197504,20951,288724,181398
1630935197514,20961,288803,181451
1630935197524,20999,288793,181518
1630935197534,21003,288787,181588
1630935197544,20945,288795,181445
1630935197554,20874,288752,181277
1630935197564,20765,288756,181014
1630935197574,20632,288689,180717
1630935197584,20501,288645,180358
1630935197594,20396,288637,180076
1630935197604,20320,288590,179874
1630935197614,20268,288619,179699
1630935197624,20221,288591,179566
1630935197634,20197,288581,179462
1630935197644,20163,288569,179379
1630935197654,20132,288601,179223
1630935197664,20087,288541,179099
1630935197674,20035,288523,178911
1630935197684,19997,288491,178720
1630935197694,19948,288473,178535
1630935197704,19912,288500,178422
1630935197714,19872,288524,178373
1630935197724,19817,288491,178284
1630935197734,19866,288450,178394
1630935197744,19909,288372,178448
1630935197754,19930,288296,178433
1630935197764,19957,288234,178425
1630935197774,20000,288259,178531
1630935197784,20047,288270,178635
1630935197794,20092,288291,178805
1630935197804,20122,288315,178905
1630935197814,20245,288247,179201
1630935197824,20415,288292,179572
1630935197834,20497,288316,179712
1630935197844,20570,288355,179905
1630935197854,20616,288359,179996
1630935197864,20615,288423,179958
1630935197874,20623,288417,179993
1630935197884,20728,288491,180263
1630935197894,20766,288496,180336
1630935197904,20785,288503,180364
1630935197914,20812,288513,180432
1630935197924,20815,288555,180446
1630935197934,20770,288563,180342
1630935197944,20693,288493,180147
1630935197954,20598,288554,179934
1630935197964,20499,288519,179648
1630935197974,20389,288523,179394
1630935197984,20297,288539,179156
1630935197994,20223,288567,178887
1630935198004,20168,288505,178749
1630935198014,20171,288513,178701
1630935198024,20126,288548,178609
1630935198034,20087,288545,178503
1630935198044,20103,288521,178511
1630935198054,20124,288523,178555
1630935198064,20164,288539,178645
1630935198074,20222,288564,178823
1630935198084,20257,288610,178900
1630935198094,20302,288591,179034
1630935198104,20386,288632,179262
1630935198114,20409,288634,179321
1630935198124,20448,288685,179405
1630935198134,20485,288702,179510
1630935198144,20505,288699,179542
1630935198154,20495,288671,179542
1630935198164,20496,288730,179519
1630935198174,20497,288705,179481
1630935198184,20483,288754,179451
1630935198194,20478,288737,179411
1630935198204,20468,288727,179392
1630935198214,20458,288765,179338
1630935198224,20440,288741,179263
1630935198234,20419,288799,179188
1630935198244,20388,288791,179092
1630935198254,20368,288767,178991
1630935198264,20336,288807,178854
1630935198274,20303,288865,178772
1630935198284,20302,288834,178720
1630935198294,20296,288886,178680
1630935198304,20292,288876,178658
1630935198314,20299,288872,178684
1630935198324,20298,288878,178667
1630935198334,20309,288886,178691
1630935198344,20314,288841,178683
1630935198354,20310,288863,178622
1630935198364,20302,288864,178605
1630935198374,20292,288876,178548
1630935198384,20283,288887,178522
1630935198394,20276,288884,178493
1630935198404,20269,288856,178458
1630935198414,20280,288812,178459
1630935198424,20299,288794,178494
1630935198434,20306,288762,178491
1630935198444,20323,288791,178475
1630935198454,20334,288743,178474
1630935198464,20308,288777,178459
1630935198474,20279,288807,178389
1630935198484,20304,288778,178466
1630935198494,20319,288752,178486
1630935198504,20325,288743,178492
1630935198514,20324,288694,178420
1630935198524,20294,288698,178304
1630935198534,20235,288709,178166
1630935198544,20159,288705,177929
1630935198554,20092,288649,177726
1630935198564,20087,288570,177679
1630935198574,20114,288504,177691
1630935198584,20144,288498,177724
1630935198594,20169,288488,177751
1630935198604,20204,288493,177788
1630935198614,20234,288467,177846
1630935198624,20235,288501,177863
1630935198634,20269,288513,177893
1630935198644,20294,288488,177942
1630935198654,20315,288534,177936
1630935198664,20329,288585,177984
1630935198674,20330,288583,177955
1630935198684,20321,288642,177934
1630935198694,20316,288635,177904
1630935198704,20303,288708,177858
1630935198714,20300,288713,177843
1630935198724,20295,288727,177809
1630935198734,20288,288716,177763
1630935198744,20270,288739,177742
1630935198754,20275,288778,177732
1630935198764,20287,288826,177759
1630935198774,20308,288798,177772
1630935198784,20340,288845,177820
1630935198794,20369,288766,177910
1630935198804,20397,288764,177953
1630935198814,20434,288819,178052
1630935198824,20467,288839,178196
1630935198834,20489,288837,178248
1630935198844,20509,288829,178373
1630935198854,20567,288868,178521
1630935198864,20609,288879,178658
1630935198874,20642,288911,178735
1630935198884,20658,288909,178799
1630935198894,20659,288885,178809
1630935198904,20639,288931,178797
1630935198914,20622,289008,178755
1630935198924,20619,288973,178780
1630935198934,20652,288973,178841
1630935198944,20680,288959,178869
1630935198954,20701,288984,178917
1630935198964,20706,288991,178935
1630935198974,20710,289004,178909
1630935198984,20713,288997,178913
1630935198994,20726,289021,178922
1630935199004,20739,288996,178931
1630935199014,20750,289029,178949
1630935199024,20754,289033,178960
1630935199034,20757,289057,178941
1630935199044,20761,289095,178942
1630935199054,20778,289061,178993
1630935199064,20789,289092,179043
1630935199074,20787,289073,179035
1630935199084,20784,289030,179046
1630935199094,20799,289050,178997
1630935199104,20797,289028,179042
1630935199114,20798,289027,179023
1630935199124,20808,289020,179062
1630935199134,20815,289023,179051
1630935199144,20816,288989,179041
1630935199154,20821,289016,179053
1630935199164,20834,288987,179093
1630935199174,20859,288994,179099
1630935199184,20869,288993,179145
1630935199194,20885,288959,179168
1630935199204,20902,289079,179205
1630935199214,20883,289088,179211
1630935199224,20864,289067,179170
1630935199234,20927,289023,179347
1630935199244,20949,289002,179369
1630935199254,20941,288959,179338
1630935199264,20952,288981,179338
1630935199274,20965,289000,179346
1630935199284,20949,288974,179311
1630935199294,20919,289029,179249
1630935199304,20882,289071,179177
1630935199314,20896,289001,179176
1630935199324,20923,289011,179223
1630935199334,20953,288945,179260
1630935199344,20975,288933,179278
1630935199354,20999,288932,179321
1630935199364,21016,288945,179359
1630935199374,21033,288987,179372
1630935199384,21041,288966,179371
1630935199394,21048,288987,179362
1630935199404,21040,288986,179336
1630935199414,21039,288985,179309
1630935199424,21040,289069,179318
1630935199434,21036,289025,179267
1630935199444,21020,289037,179230
1630935199454,21011,289071,179195
1630935199464,20981,289082,179129
1630935199474,20956,289068,179052
1630935199484,20945,289091,179009
1630935199494,20940,289098,178965
1630935199504,20955,289068,178981
1630935199514,20974,289107,179021
1630935199524,20987,289083,179036
1630935199534,21001,289051,179080
1630935199544,21027,289044,179103
1630935199554,21055,289032,179178
1630935199564,21087,289045,179265
1630935199574,21087,289037,179255
1630935199584,21092,289062,179283
1630935199594,21118,289093,179334
1630935199604,21117,289065,179359
1630935199614,21125,289097,179390
1630935199624,21135,289058,179381
1630935199634,21140,289007,179397
1630935199644,21135,289025,179427
1630935199654,21122,288981,179390
1630935199664,21120,288994,179393
1630935199674,21125,289014,179414
1630935199684,21138,289033,179412
1630935199694,21153,288949,179435
1630935199704,21167,288931,179468
1630935199714,21183,288964,179492
1630935199724,21195,288941,179505
1630935199734,21201,288959,179490
1630935199744,21213,289013,179527
1630935199754,21220,288967,179501
1630935199764,21200,288986,179490
1630935199774,21210,289028,179489
1630935199784,21213,289037,179480
1630935199794,21215,289066,179474
1630935199804,21224,289060,179536
1630935199814,21232,289060,179537
1630935199824,21232,289054,179532
1630935199834,21233,289092,179542
1630935199844,21226,289072,179510
1630935199854,21220,289053,179512
1630935199864,21217,289096,179474
1630935199874,21216,289041,179452
1630935199884,21208,289041,179409
1630935199894,21203,289053,179378
1630935199904,21183,289067,179346
1630935199914,21178,289069,179309
1630935199924,21170,289096,179306
1630935199934,21182,289082,179303
1630935199944,21191,289094,179306
1630935199954,21197,289076,179298
1630935199964,21201,289178,179312
1630935199974,21146,289143,179284
1630935199984,21078,289111,179169
1630935199994,21142,289106,179363
1630935200004,21187,289049,179438
1630935200014,21193,289039,179404
1630935200024,21215,288989,179417
1630935200034,21241,288973,179437
1630935200044,21235,288995,179425
1630935200054,21198,289056,179354
1630935200064,21159,289024,179245
1630935200074,21178,288957,179266
1630935200084,21202,288941,179334
1630935200094,21254,288917,179419
1630935200104,21297,288902,179501
1630935200114,21315,288896,179529
1630935200124,21319,288923,179517
1630935200134,21322,288921,179519
1630935200144,21309,288941,179470
1630935200154,21291,288955,179424
1630935200164,21260,289001,179330
1630935200174,21229,289055,179222
1630935200184,21199,289050,179140
1630935200194,21186,289068,179087
1630935200204,21163,289072,179036
1630935200214,21144,289050,179006
1630935200224,21143,289083,178951
1630935200234,21144,289092,178947
1630935200244,21150,289068,178969
1630935200254,21179,289093,179011
1630935200264,21206,289047,179100
1630935200274,21235,289055,179151
1630935200284,21260,289023,179213
1630935200294,21288,289013,179299
1630935200304,21314,289056,179346
1630935200314,21328,289068,179392
1630935200324,21341,289070,179459
1630935200334,21326,289048,179444
1630935200344,21308,289059,179409
1630935200354,21328,289014,179456
1630935200364,21335,289030,179490
1630935200374,21324,289033,179468
1630935200384,21326,289058,179474
1630935200394,21316,289030,179468
1630935200404,21307,289028,179442
1630935200414,21264,289043,179357
1630935200424,21246,289047,179313
1630935200434,21245,289046,179324
1630935200444,21266,289010,179336
1630935200454,21278,289031,179351
1630935200464,21302,288996,179411
1630935200474,21302,288990,179430
1630935200484,21333,288990,179446
1630935200494,21334,289019,179447
1630935200504,21343,288993,179459
1630935200514,21345,289022,179463
1630935200524,21347,289045,179438
1630935200534,21346,289091,179423
1630935200544,21340,289107,179405
1630935200554,21326,289148,179345
1630935200564,21330,289136,179364
1630935200574,21335,289109,179381
1630935200584,21328,289123,179371
1630935200594,21331,289145,179401
1630935200604,21337,289117,179413
1630935200614,21335,289144,179424
1630935200624,21338,289080,179414
1630935200634,21335,289105,179416
1630935200644,21343,289097,179451
1630935200654,21344,289157,179442
1630935200664,21351,289183,179487
1630935200674,21357,289157,179501
1630935200684,21358,289160,179520
1630935200694,21365,289180,179545
1630935200704,21359,289209,179548
1630935200714,21362,289218,179567
1630935200724,21388,289268,179671
1630935200734,21354,289349,179675
1630935200744,21380,289301,179695
1630935200754,21446,289318,179841
1630935200764,21479,289297,179903
1630935200774,21494,289236,179940
1630935200784,21508,289284,179986
1630935200794,21504,289329,179965
1630935200804,21487,289367,179965
1630935200814,21434,289374,179869
1630935200824,21391,289391,179792
1630935200834,21397,289380,179778
1630935200844,21405,289351,179767
1630935200854,21416,289325,179752
1630935200864,21434,289321,179804
1630935200874,21457,289304,179823
1630935200884,21453,289268,179808
1630935200894,21478,289296,179827
1630935200904,21477,289279,179814
1630935200914,21484,289281,179822
1630935200924,21471,289320,179794
1630935200934,21473,289312,179765
1630935200944,21479,289315,179793
1630935200954,21480,289286,179809
1630935200964,21474,289303,179790
1630935200974,21469,289306,179762
1630935200984,21451,289341,179715
1630935200994,21435,289342,179695
1630935201004,21431,289365,179670
1630935201014,21432,289385,179721
1630935201024,21462,289332,179771
1630935201034,21492,289347,179826
1630935201044,21516,289344,179852
1630935201054,21515,289378,179907
1630935201064,21525,289359,179907
1630935201074,21522,289360,179906
1630935201084,21524,289357,179945
1630935201094,21533,289345,179989
1630935201104,21524,289451,179954
1630935201114,21528,289350,179995
1630935201124,21548,289339,180053
1630935201134,21560,289384,180095
1630935201144,21574,289376,180144
1630935201154,21588,289374,180194
1630935201164,21584,289367,180185
1630935201174,21587,289321,180190
1630935201184,21558,289269,180197
1630935201194,21547,289276,180178
1630935201204,21559,289268,180154
1630935201214,21549,289233,180096
1630935201224,21534,289274,180081
1630935201234,21536,289267,180064
1630935201244,21523,289256,180063
1630935201254,21512,289247,180013
1630935201264,21492,289281,179911
1630935201274,21469,289240,179840
1630935201284,21446,289267,179772
1630935201294,21426,289284,179733
1630935201304,21424,289277,179702
1630935201314,21422,289343,179743
1630935201324,21439,289320,179768
1630935201334,21455,289315,179806
1630935201344,21465,289274,179831
1630935201354,21465,289299,179867
1630935201364,21487,289300,179922
1630935201374,21504,289302,179979
1630935201384,21507,289290,180020
1630935201394,21497,289288,179993
1630935201404,21492,289260,179975
1630935201414,21471,289274,179928
1630935201424,21437,289262,179883
1630935201434,21414,289277,179849
1630935201444,21391,289278,179816
1630935201454,21374,289261,179739
1630935201464,21355,289235,179678
1630935201474,21340,289239,179648
1630935201484,21323,289262,179582
1630935201494,21270,289252,179497
1630935201504,21247,289226,179490
1630935201514,21280,289186,179542
1630935201524,21298,289180,179621
1630935201534,21328,289142,179668
1630935201544,21339,289159,179677
1630935201554,21345,289101,179711
1630935201564,21332,289153,179705
1630935201574,21316,289152,179666
1630935201584,21313,289125,179646
1630935201594,21329,289094,179724
1630935201604,21364,289089,179781
1630935201614,21399,289026,179829
1630935201624,21422,289055,179888
1630935201634,21426,289048,179895
1630935201644,21415,289020,179844
1630935201654,21408,289018,179812
1630935201664,21396,288999,179783
1630935201674,21371,289054,179723
1630935201684,21349,288987,179626
1630935201694,21311,289038,179560
1630935201704,21295,289084,179528
1630935201714,21268,289045,179442
1630935201724,21248,289039,179393
1630935201734,21232,289053,179375
1630935201744,21208,289037,179327
1630935201754,21194,289074,179309
1630935201764,21192,289092,179295
1630935201774,21193,289092,179288
1630935201784,21197,289060,179324
1630935201794,21209,289090,179364
1630935201804,21220,289070,179384
1630935201814,21240,289061,179451
1630935201824,21276,289019,179506
1630935201834,21290,288995,179568
1630935201844,21308,289037,179577
1630935201854,21298,289041,179558
1630935201864,21292,289126,179607
1630935201874,21223,289107,179475
1630935201884,21214,289097,179490
1630935201894,21223,289095,179545
1630935201904,21219,289063,179524
1630935201914,21237,289018,179615
1630935201924,21252,288966,179628
1630935201934,21249,288978,179594
1630935201944,21251,288938,179630
1630935201954,21258,288965,179650
1630935201964,21271,288953,179711
1630935201974,21295,288953,179740
1630935201984,21304,288943,179761
1630935201994,21311,288896,179785
1630935202004,21321,288919,179787
1630935202014,21327,288891,179787
1630935202024,21315,288895,179745
1630935202034,21295,288907,179716
1630935202044,21280,288925,179681
1630935202054,21267,288951,179649
1630935202064,21245,289003,179579
1630935202074,21230,289001,179538
1630935202084,21201,288988,179483
1630935202094,21196,289023,179512
1630935202104,21192,289009,179509
1630935202114,21190,289006,179527
1630935202124,21195,288991,179524
1630935202134,21195,289017,179525
1630935202144,21182,289025,179520
1630935202154,21172,289010,179527
1630935202164,21170,289022,179502
1630935202174,21140,289039,179452
1630935202184,21106,288995,179400
1630935202194,21088,289054,179353
1630935202204,21074,289050,179355
1630935202214,21076,289081,179335
1630935202224,21068,289042,179325
1630935202234,21061,289056,179305
1630935202244,21060,289110,179353
1630935202254,21026,289141,179337
1630935202264,21013,289099,179366
1630935202274,21054,289094,179464
1630935202284,21074,289043,179515
1630935202294,21075,288999,179499
1630935202304,21088,289017,179526
1630935202314,21073,289020,179498
1630935202324,21054,289039,179467
1630935202334,21006,289067,179372
1630935202344,20957,289056,179280
1630935202354,20962,289098,179269
1630935202364,20986,289053,179321
1630935202374,21026,288969,179391
1630935202384,21062,288956,179475
1630935202394,21074,288978,179483
1630935202404,21073,288993,179478
1630935202414,21065,288988,179467
1630935202424,21069,289002,179451
1630935202434,21063,289020,179444
1630935202444,21063,289015,179435
1630935202454,21055,289035,179417
1630935202464,21039,289055,179385
1630935202474,21018,289093,179346
1630935202484,20996,289105,179320
1630935202494,20984,289109,179288
1630935202504,20970,289096,179270
1630935202514,20970,289111,179291
1630935202524,20977,289128,179305
1630935202534,20983,289122,179342
1630935202544,20997,289146,179399
1630935202554,21021,289184,179466
1630935202564,21035,289163,179551
1630935202574,21041,289191,179589
1630935202584,21039,289188,179591
1630935202594,21031,289219,179599
1630935202604,21017,289203,179605
1630935202614,21014,289269,179629
1630935202624,20999,289279,179724
1630935202634,20949,289235,179613
1630935202644,20974,289205,179749
1630935202654,20974,289256,179724
1630935202664,20954,289226,179722
1630935202674,20966,289268,179793
1630935202684,20979,289274,179822
1630935202694,20993,289231,179910
1630935202704,21019,289275,179979
1630935202714,21041,289212,180058
1630935202724,21067,289186,180114
1630935202734,21084,289149,180130
1630935202744,21097,289137,180197
1630935202754,21096,289130,180237
1630935202764,21085,289143,180224
1630935202774,21050,289158,180145
1630935202784,21025,289129,180079
1630935202794,21017,289262,180046
1630935202804,21007,289140,180042
1630935202814,20979,289197,179980
1630935202824,20982,289200,179934
1630935202834,20965,289205,179922
1630935202844,20964,289235,179944
1630935202854,20968,289201,180009
1630935202864,20970,289230,180048
1630935202874,20959,289202,180059
1630935202884,20944,289163,180057
1630935202894,20936,289191,180053
1630935202904,20927,289114,180056
1630935202914,20914,289180,180067
1630935202924,20904,289198,180029
1630935202934,20884,289140,180014
