timestamp,green,ir,red
1630934635191,39376,309098,214404
1630934635201,39388,309090,214406
1630934635211,39375,309071,214395
1630934635221,39371,309074,214371
1630934635231,39382,309061,214371
1630934635241,39384,309041,214393
1630934635251,39384,309048,214369
1630934635261,39390,309047,214392
1630934635271,39406,309060,214385
1630934635281,39401,309119,214403
1630934635291,39395,309112,214395
1630934635301,39398,309068,214406
1630934635311,39401,309091,214397
1630934635321,39400,309103,214380
1630934635331,39401,309104,214397
1630934635341,39410,309141,214391
1630934635351,39419,309110,214376
1630934635361,39412,309142,214384
1630934635371,39410,309138,214370
1630934635381,39410,309142,214384
1630934635391,39401,309116,214368
1630934635401,39399,309176,214388
1630934635411,39401,309131,214361
1630934635421,39406,309191,214376
1630934635431,39409,309184,214348
1630934635441,39402,309200,214344
1630934635451,39405,309206,214364
1630934635461,39406,309171,214383
1630934635471,39411,309197,214357
1630934635481,39422,309239,214378
1630934635491,39439,309232,214408
1630934635501,39441,309298,214397
1630934635511,39433,309274,214422
1630934635521,39435,309318,214437
1630934635531,39443,309268,214489
1630934635541,39453,309280,214485
1630934635551,39457,309300,214516
1630934635561,39463,309331,214517
1630934635571,39465,309338,214578
1630934635581,39475,309339,214567
1630934635591,39489,309334,214596
1630934635601,39496,309348,214636
1630934635611,39504,309391,214656
1630934635621,39510,309416,214672
1630934635631,39524,309442,214715
1630934635641,39535,309420,214762
1630934635651,39548,309456,214771
1630934635661,39549,309443,214771
1630934635671,39554,309430,214769
1630934635681,39556,309503,214780
1630934635691,39552,309499,214786
1630934635701,39562,309493,214776
1630934635711,39552,309515,214762
1630934635721,39550,309509,214753
1630934635731,39536,309518,214746
1630934635741,39540,309539,214756
1630934635751,39529,309514,214731
1630934635761,39529,309544,214729
1630934635771,39535,309514,214739
1630934635781,39536,309535,214719
1630934635791,39539,309528,214735
1630934635801,39537,309503,214719
1630934635811,39531,309523,214707
1630934635821,39520,309581,214712
1630934635831,39535,309568,214709
1630934635841,39526,309576,214678
1630934635851,39514,309546,214692
1630934635861,39530,309604,214677
1630934635871,39514,309607,214657
1630934635881,39514,309597,214658
1630934635891,39521,309629,214675
1630934635901,39517,309634,214671
1630934635911,39518,309610,214688
1630934635921,39525,309631,214660
1630934635931,39524,309596,214653
1630934635941,39517,309627,214644
1630934635951,39525,309572,214657
1630934635961,39528,309621,214658
1630934635971,39521,309681,214634
1630934635981,39530,309641,214628
1630934635991,39532,309616,214626
1630934636001,39528,309673,214636
1630934636011,39536,309631,214644
1630934636021,39519,309623,214644
1630934636031,39527,309689,214610
1630934636041,39522,309667,214625
1630934636051,39535,309692,214621
1630934636061,39540,309649,214618
1630934636071,39553,309670,214611
1630934636081,39545,309703,214632
1630934636091,39542,309672,214628
1630934636101,39538,309663,214650
1630934636111,39540,309696,214640
1630934636121,39539,309642,214662
1630934636131,39540,309651,214642
1630934636141,39550,309647,214627
1630934636151,39542,309614,214609
1630934636161,39545,309657,214631
1630934636171,39550,309633,214612
1630934636181,39564,309641,214619
1630934636191,39554,309620,214595
1630934636201,39553,309623,214608
1630934636211,39549,309646,214604
1630934636221,39555,309615,214622
1630934636231,39558,309578,214629
1630934636241,39563,309637,214655
1630934636251,39569,309641,214648
1630934636261,39583,309651,214657
1630934636271,39586,309612,214667
1630934636281,39593,309646,214680
1630934636291,39618,309608,214702
1630934636301,39635,309591,214711
1630934636311,39637,309648,214712
1630934636321,39635,309683,214719
1630934636331,39638,309674,214751
1630934636341,39641,309681,214768
1630934636351,39641,309692,214790
1630934636361,39637,309773,214784
1630934636371,39625,309739,214808
1630934636381,39618,309737,214775
1630934636391,39607,309729,214771
1630934636401,39603,309803,214751
1630934636411,39609,309744,214785
1630934636421,39618,309785,214766
1630934636431,39617,309777,214759
1630934636441,39617,309762,214743
1630934636451,39614,309797,214722
1630934636461,39624,309744,214736
1630934636471,39629,309711,214730
1630934636481,39631,309743,214728
1630934636491,39634,309733,214726
1630934636501,39640,309735,214768
1630934636511,39661,309727,214783
1630934636521,39681,309717,214776
1630934636531,39681,309730,214801
1630934636541,39683,309738,214814
1630934636551,39695,309785,214828
1630934636561,39705,309786,214828
1630934636571,39701,309767,214826
1630934636581,39703,309764,214798
1630934636591,39696,309697,214790
1630934636601,39700,309725,214777
1630934636611,39708,309775,214765
1630934636621,39725,309763,214810
1630934636631,39730,309811,214846
1630934636641,39769,309780,214874
1630934636651,39798,309744,214891
1630934636661,39817,309738,214955
1630934636671,39865,309720,215016
1630934636681,39921,309737,215138
1630934636691,39977,309804,215259
1630934636701,40033,309813,215402
1630934636711,40085,309875,215520
1630934636721,40136,309913,215613
1630934636731,40161,309968,215690
1630934636741,40175,310011,215739
1630934636751,40186,309991,215785
1630934636761,40208,310066,215863
1630934636771,40241,310118,215941
1630934636781,40295,310185,216023
1630934636791,40310,310161,216074
1630934636801,40319,310213,216138
1630934636811,40346,310183,216167
1630934636821,40336,310187,216221
1630934636831,40337,310109,216178
1630934636841,40334,310144,216165
1630934636851,40342,310204,216198
1630934636861,40353,310282,216245
1630934636871,40358,310269,216263
1630934636881,40378,310310,216256
1630934636891,40369,310297,216251
1630934636901,40369,310259,216244
1630934636911,40361,310200,216199
1630934636921,40366,310239,216227
1630934636931,40360,310314,216235
1630934636941,40337,310363,216244
1630934636951,40312,310381,216206
1630934636961,40273,310435,216140
1630934636971,40229,310409,216071
1630934636981,40193,310435,216068
1630934636991,40169,310451,216011
1630934637001,40136,310483,215964
1630934637011,40117,310525,215933
1630934637021,40094,310540,215920
1630934637031,40078,310583,215891
1630934637041,40058,310585,215852
1630934637051,40044,310609,215860
1630934637061,40029,310674,215819
1630934637071,40016,310668,215823
1630934637081,40007,310700,215824
1630934637091,39994,310697,215804
1630934637101,39978,310711,215763
1630934637111,39979,310687,215769
1630934637121,39934,310782,215723
1630934637131,39954,310716,215731
1630934637141,39925,310800,215701
1630934637151,39923,310741,215655
1630934637161,39918,310773,215653
1630934637171,39913,310789,215653
1630934637181,39903,310770,215674
1630934637191,39886,310801,215644
1630934637201,39877,310825,215635
1630934637211,39867,310762,215614
1630934637221,39861,310777,215631
1630934637231,39852,310783,215609
1630934637241,39862,310745,215618
1630934637251,39856,310799,215610
1630934637261,39861,310756,215596
1630934637271,39857,310744,215571
1630934637281,39861,310726,215547
1630934637291,39871,310760,215595
1630934637301,39870,310750,215567
1630934637311,39858,310731,215572
1630934637321,39845,310716,215541
1630934637331,39854,310742,215539
1630934637341,39842,310716,215523
1630934637351,39842,310706,215558
1630934637361,39838,310699,215547
1630934637371,39834,310666,215505
1630934637381,39836,310651,215516
1630934637391,39836,310685,215518
1630934637401,39828,310688,215502
1630934637411,39820,310625,215472
1630934637421,39829,310637,215462
1630934637431,39822,310672,215458
1630934637441,39811,310650,215414
1630934637451,39793,310664,215388
1630934637461,39783,310644,215357
1630934637471,39762,310647,215337
1630934637481,39757,310614,215293
1630934637491,39747,310613,215299
1630934637501,39736,310608,215259
1630934637511,39738,310562,215244
1630934637521,39725,310615,215238
1630934637531,39717,310564,215218
1630934637541,39720,310589,215179
1630934637551,39719,310616,215190
1630934637561,39709,310604,215154
1630934637571,39711,310547,215176
1630934637581,39699,310572,215171
1630934637591,39684,310571,215098
1630934637601,39677,310600,215084
1630934637611,39674,310514,215054
1630934637621,39677,310522,215045
1630934637631,39671,310518,215033
1630934637641,39672,310516,215028
1630934637651,39663,310504,215011
1630934637661,39647,310506,214991
1630934637671,39646,310476,214949
1630934637681,39651,310519,214971
1630934637691,39634,310505,214955
1630934637701,39631,310462,214936
1630934637711,39627,310454,214903
1630934637721,39626,310482,214894
1630934637731,39623,310463,214875
1630934637741,39611,310459,214893
1630934637751,39609,310446,214878
1630934637761,39617,310440,214880
1630934637771,39603,310437,214883
1630934637781,39595,310369,214847
1630934637791,39595,310374,214856
1630934637801,39604,310336,214882
1630934637811,39589,310356,214845
1630934637821,39585,310379,214834
1630934637831,39587,310373,214824
1630934637841,39584,310350,214822
1630934637851,39577,310346,214819
1630934637861,39574,310265,214814
1630934637871,39577,310292,214818
1630934637881,39574,310256,214821
1630934637891,39568,310275,214809
1630934637901,39563,310293,214778
1630934637911,39564,310253,214814
1630934637921,39564,310234,214767
1630934637931,39556,310259,214772
1630934637941,39566,310236,214748
1630934637951,39570,310253,214751
1630934637961,39570,310245,214750
1630934637971,39566,310198,214763
1630934637981,39571,310196,214760
1630934637991,39567,310226,214775
1630934638001,39571,310215,214750
1630934638011,39572,310172,214790
1630934638021,39576,310152,214765
1630934638031,39572,310179,214786
1630934638041,39574,310203,214752
1630934638051,39576,310189,214773
1630934638061,39574,310152,214754
1630934638071,39558,310172,214758
1630934638081,39563,310159,214732
1630934638091,39561,310129,214730
1630934638101,39566,310117,214765
1630934638111,39566,310115,214739
1630934638121,39548,310133,214715
1630934638131,39552,310188,214722
1630934638141,39546,310226,214698
1630934638151,39528,310201,214722
1630934638161,39519,310196,214678
1630934638171,39512,310183,214658
1630934638181,39503,310194,214665
1630934638191,39492,310136,214627
1630934638201,39487,310148,214609
1630934638211,39475,310130,214587
1630934638221,39475,310149,214577
1630934638231,39470,310131,214557
1630934638241,39461,310125,214553
1630934638251,39478,310140,214547
1630934638261,39477,310133,214545
1630934638271,39483,310150,214561
1630934638281,39478,310102,214558
1630934638291,39484,310142,214557
1630934638301,39465,310137,214552
1630934638311,39463,310062,214549
1630934638321,39446,310063,214554
1630934638331,39445,310113,214524
1630934638341,39432,310040,214515
1630934638351,39424,310012,214501
1630934638361,39420,310023,214515
1630934638371,39415,310005,214498
1630934638381,39411,310004,214506
1630934638391,39409,309989,214492
1630934638401,39392,309999,214488
1630934638411,39383,309999,214458
1630934638421,39384,309956,214443
1630934638431,39361,310004,214419
1630934638441,39357,309959,214398
1630934638451,39352,309988,214406
1630934638461,39343,309951,214421
1630934638471,39344,309982,214403
1630934638481,39349,309985,214404
1630934638491,39338,309941,214401
1630934638501,39332,309945,214391
1630934638511,39327,309976,214385
1630934638521,39320,309987,214388
1630934638531,39312,310007,214400
1630934638541,39307,310009,214409
1630934638551,39306,310017,214454
1630934638561,39310,310098,214447
1630934638571,39307,310132,214468
1630934638581,39326,310104,214483
1630934638591,39316,310126,214517
1630934638601,39331,310071,214517
1630934638611,39325,310137,214531
1630934638621,39326,310096,214539
1630934638631,39323,310111,214534
1630934638641,39321,310108,214514
1630934638651,39330,310103,214538
1630934638661,39330,310054,214530
1630934638671,39335,310123,214490
1630934638681,39338,310059,214493
1630934638691,39340,309986,214463
1630934638701,39346,309968,214474
1630934638711,39353,309917,214442
1630934638721,39362,309910,214438
1630934638731,39375,309877,214434
1630934638741,39393,309901,214461
1630934638751,39425,309899,214518
1630934638761,39462,309898,214532
1630934638771,39475,309816,214560
1630934638781,39466,309859,214510
1630934638791,39452,309901,214501
1630934638801,39443,309870,214440
1630934638811,39424,309884,214436
1630934638821,39412,309864,214396
1630934638831,39413,309884,214384
1630934638841,39415,309838,214356
1630934638851,39416,309765,214372
1630934638861,39427,309725,214346
1630934638871,39423,309661,214354
1630934638881,39429,309544,214337
1630934638891,39434,309530,214330
1630934638901,39454,309548,214358
1630934638911,39482,309518,214424
1630934638921,39485,309525,214473
1630934638931,39488,309584,214503
1630934638941,39480,309584,214518
1630934638951,39473,309592,214562
1630934638961,39448,309574,214544
1630934638971,39423,309580,214497
1630934638981,39411,309563,214498
1630934638991,39408,309630,214523
1630934639001,39417,309576,214552
1630934639011,39433,309559,214586
1630934639021,39443,309594,214601
1630934639031,39443,309613,214610
1630934639041,39444,309570,214615
1630934639051,39428,309608,214582
1630934639061,39418,309545,214572
1630934639071,39398,309549,214548
1630934639081,39389,309577,214531
1630934639091,39395,309558,214528
1630934639101,39395,309570,214558
1630934639111,39426,309504,214583
1630934639121,39444,309561,214632
1630934639131,39476,309579,214675
1630934639141,39488,309542,214703
1630934639151,39493,309525,214711
1630934639161,39483,309515,214680
1630934639171,39475,309552,214704
1630934639181,39493,309500,214704
1630934639191,39515,309487,214757
1630934639201,39546,309559,214837
1630934639211,39572,309533,214901
1630934639221,39588,309615,214922
1630934639231,39581,309612,214902
1630934639241,39541,309610,214862
1630934639251,39520,309579,214787
1630934639261,39504,309597,214769
1630934639271,39523,309618,214792
1630934639281,39530,309638,214782
1630934639291,39529,309648,214806
1630934639301,39503,309636,214773
1630934639311,39490,309534,214707
1630934639321,39483,309477,214654
1630934639331,39485,309491,214656
1630934639341,39483,309423,214603
1630934639351,39483,309363,214566
1630934639361,39494,309356,214614
1630934639371,39520,309490,214711
1630934639381,39549,309518,214793
1630934639391,39512,309578,214808
1630934639401,39500,309625,214780
1630934639411,39478,309682,214747
1630934639421,39443,309657,214735
1630934639431,39394,309667,214665
1630934639441,39320,309564,214512
1630934639451,39260,309492,214406
1630934639461,39230,309457,214327
1630934639471,39194,309396,214269
1630934639481,39157,309372,214229
1630934639491,39151,309318,214183
1630934639501,39193,309252,214272
1630934639511,39256,309303,214404
1630934639521,39309,309292,214555
1630934639531,39349,309362,214659
1630934639541,39364,309342,214684
1630934639551,39402,309276,214732
1630934639561,39446,309299,214863
1630934639571,39467,309320,214948
1630934639581,39466,309326,214972
1630934639591,39455,309362,215005
1630934639601,39444,309410,215098
1630934639611,39471,309488,215221
1630934639621,39539,309531,215397
1630934639631,39604,309623,215609
1630934639641,39607,309712,215722
1630934639651,39563,309716,215717
1630934639661,39525,309767,215692
1630934639671,39500,309720,215689
1630934639681,39461,309780,215633
1630934639691,39435,309839,215659
1630934639701,39468,309871,215747
1630934639711,39436,309894,215740
1630934639721,39398,309901,215703
1630934639731,39405,309895,215769
1630934639741,39454,309850,215828
1630934639751,39499,309775,215867
1630934639761,39518,309804,215906
1630934639771,39484,309837,215925
1630934639781,39430,309913,215903
1630934639791,39362,310001,215864
1630934639801,39320,309965,215897
1630934639811,39256,309875,215752
1630934639821,39199,309710,215588
1630934639831,39178,309590,215526
1630934639841,39192,309656,215565
1630934639851,39192,309571,215497
1630934639861,39185,309556,215447
1630934639871,39210,309502,215413
1630934639881,39220,309495,215428
1630934639891,39225,309510,215455
1630934639901,39237,309471,215472
1630934639911,39246,309459,215496
1630934639921,39263,309434,215544
1630934639931,39304,309434,215617
1630934639941,39363,309443,215667
1630934639951,39413,309466,215750
1630934639961,39447,309465,215808
1630934639971,39481,309439,215834
1630934639981,39500,309418,215843
1630934639991,39517,309361,215858
1630934640001,39518,309409,215845
1630934640011,39516,309359,215837
1630934640021,39502,309342,215799
1630934640031,39493,309349,215744
1630934640041,39463,309328,215691
1630934640051,39431,309320,215639
1630934640061,39397,309298,215580
1630934640071,39366,309299,215549
1630934640081,39348,309302,215523
1630934640091,39324,309286,215450
1630934640101,39307,309301,215497
1630934640111,39278,309368,215544
1630934640121,39279,309315,215569
1630934640131,39299,309376,215648
1630934640141,39336,309422,215779
1630934640151,39398,309448,215963
1630934640161,39463,309508,216123
1630934640171,39520,309507,216291
1630934640181,39576,309580,216482
1630934640191,39666,309665,216741
1630934640201,39738,309768,216955
1630934640211,39820,309987,217230
1630934640221,39913,310125,217541
1630934640231,39967,310252,217744
1630934640241,39989,310343,217821
1630934640251,39975,310366,217824
1630934640261,39922,310296,217706
1630934640271,39857,310242,217517
1630934640281,39825,310108,217423
1630934640291,39826,310022,217310
1630934640301,39838,310030,217313
1630934640311,39835,310003,217266
1630934640321,39798,309996,217159
1630934640331,39756,309913,217032
1630934640341,39728,309833,216902
1630934640351,39708,309860,216837
1630934640361,39673,309845,216766
1630934640371,39650,309850,216714
1630934640381,39639,309882,216731
1630934640391,39612,309931,216697
1630934640401,39603,309851,216623
1630934640411,39590,309845,216592
1630934640421,39588,309792,216567
1630934640431,39592,309807,216554
1630934640441,39605,309741,216579
1630934640451,39614,309715,216585
1630934640461,39630,309700,216589
1630934640471,39660,309639,216649
1630934640481,39714,309685,216764
1630934640491,39756,309764,216916
1630934640501,39814,309837,217086
1630934640511,39875,309886,217266
1630934640521,39917,309991,217396
1630934640531,39937,310052,217519
1630934640541,39951,310183,217609
1630934640551,39953,310216,217663
1630934640561,39960,310245,217695
1630934640571,39969,310305,217730
1630934640581,39981,310348,217779
1630934640591,39991,310343,217791
1630934640601,39992,310304,217777
1630934640611,39995,310239,217711
1630934640621,39987,310189,217659
1630934640631,39970,310128,217559
1630934640641,39953,310037,217459
1630934640651,39932,310036,217349
1630934640661,39900,310001,217252
1630934640671,39871,310043,217181
1630934640681,39832,309988,217085
1630934640691,39802,309995,217010
1630934640701,39750,309966,216914
1630934640711,39713,309968,216849
1630934640721,39667,310040,216740
1630934640731,39612,309987,216693
1630934640741,39591,309990,216648
1630934640751,39576,310003,216639
1630934640761,39562,310002,216639
1630934640771,39555,310057,216648
1630934640781,39537,310057,216604
1630934640791,39516,310023,216570
1630934640801,39488,309997,216517
1630934640811,39454,310034,216483
1630934640821,39420,310112,216551
1630934640831,39370,309955,216388
1630934640841,39343,309957,216312
1630934640851,39346,309988,216321
1630934640861,39353,310001,216305
1630934640871,39342,310066,216281
1630934640881,39319,310029,216189
1630934640891,39280,310052,216102
1630934640901,39235,310025,215957
1630934640911,39192,309979,215894
1630934640921,39147,309942,215737
1630934640931,39093,309818,215570
1630934640941,39039,309705,215436
1630934640951,39023,309692,215380
1630934640961,39012,309704,215357
1630934640971,39010,309668,215290
1630934640981,39014,309718,215300
1630934640991,39015,309749,215273
1630934641001,39023,309703,215279
1630934641011,39007,309665,215228
1630934641021,38982,309636,215140
1630934641031,38952,309573,215075
1630934641041,38937,309539,215018
1630934641051,38927,309518,215004
1630934641061,38930,309558,215014
1630934641071,38920,309517,214957
1630934641081,38922,309506,214930
1630934641091,38943,309492,214937
1630934641101,38954,309528,214958
1630934641111,38972,309446,214982
1630934641121,38985,309501,214985
1630934641131,38990,309524,214996
1630934641141,38988,309524,215026
1630934641151,38980,309577,215078
1630934641161,38984,309532,215182
1630934641171,38991,309712,215290
1630934641181,39007,309724,215297
1630934641191,38992,309696,215267
1630934641201,38994,309634,215175
1630934641211,39016,309570,215169
1630934641221,39037,309566,215236
1630934641231,39064,309622,215313
1630934641241,39082,309662,215357
1630934641251,39073,309597,215319
1630934641261,39056,309585,215244
1630934641271,39049,309513,215208
1630934641281,39060,309518,215227
1630934641291,39077,309495,215241
1630934641301,39099,309441,215275
1630934641311,39114,309409,215290
1630934641321,39160,309403,215295
1630934641331,39190,309345,215357
1630934641341,39222,309302,215397
1630934641351,39269,309274,215417
1630934641361,39314,309300,215489
1630934641371,39362,309274,215575
1630934641381,39438,309289,215700
1630934641391,39529,309211,215825
1630934641401,39622,309257,215998
1630934641411,39698,309310,216107
1630934641421,39743,309364,216235
1630934641431,39789,309415,216384
1630934641441,39816,309559,216491
1630934641451,39820,309584,216507
1630934641461,39802,309680,216484
1630934641471,39789,309620,216438
1630934641481,39790,309588,216379
1630934641491,39819,309507,216372
1630934641501,39843,309477,216400
1630934641511,39866,309441,216421
1630934641521,39885,309357,216390
1630934641531,39916,309395,216471
1630934641541,39964,309435,216539
1630934641551,40021,309529,216699
1630934641561,40055,309522,216770
1630934641571,40089,309492,216865
1630934641581,40117,309475,216930
1630934641591,40161,309565,217036
1630934641601,40227,309618,217177
1630934641611,40269,309697,217314
1630934641621,40318,309716,217435
1630934641631,40356,309758,217507
1630934641641,40393,309813,217612
1630934641651,40413,309803,217666
1630934641661,40448,309810,217730
1630934641671,40473,309850,217768
1630934641681,40494,309856,217827
1630934641691,40528,309865,217866
1630934641701,40549,309895,217905
1630934641711,40552,309880,217873
1630934641721,40543,309864,217889
1630934641731,40538,309801,217833
1630934641741,40536,309746,217794
1630934641751,40543,309703,217796
1630934641761,40549,309722,217759
1630934641771,40549,309682,217763
1630934641781,40551,309737,217794
1630934641791,40557,309675,217753
1630934641801,40562,309686,217773
1630934641811,40561,309705,217761
1630934641821,40550,309678,217753
1630934641831,40558,309674,217784
1630934641841,40561,309677,217785
1630934641851,40561,309680,217800
1630934641861,40560,309657,217794
1630934641871,40549,309731,217840
1630934641881,40550,309715,217823
1630934641891,40553,309697,217870
1630934641901,40559,309758,217897
1630934641911,40563,309788,217902
1630934641921,40558,309839,217939
1630934641931,40566,309882,217988
1630934641941,40554,309942,217985
1630934641951,40547,309956,218056
1630934641961,40530,310011,218068
1630934641971,40530,310056,218086
1630934641981,40535,310132,218130
1630934641991,40535,310169,218114
1630934642001,40521,310179,218157
1630934642011,40516,310248,218145
1630934642021,40492,310276,218159
1630934642031,40462,310311,218151
1630934642041,40443,310418,218119
1630934642051,40416,310458,218115
1630934642061,40394,310465,218110
1630934642071,40395,310485,218095
1630934642081,40391,310577,218124
1630934642091,40381,310587,218131
1630934642101,40370,310722,218137
1630934642111,40347,310751,218126
1630934642121,40334,310748,218121
1630934642131,40328,310760,218117
1630934642141,40315,310808,218090
1630934642151,40286,310827,218056
1630934642161,40267,310896,218052
1630934642171,40246,310943,218001
1630934642181,40231,310947,217984
1630934642191,40205,311006,217948
1630934642201,40183,310994,217921
1630934642211,40166,311000,217852
1630934642221,40157,311010,217815
1630934642231,40133,311015,217828
1630934642241,40121,310980,217792
1630934642251,40108,311021,217773
1630934642261,40079,311019,217722
1630934642271,40049,311019,217665
1630934642281,40019,311055,217636
1630934642291,40008,311083,217561
1630934642301,39974,311010,217535
1630934642311,39957,311031,217481
1630934642321,39932,311007,217434
1630934642331,39939,310900,217386
1630934642341,39933,310896,217349
1630934642351,39949,310889,217351
1630934642361,39953,310883,217330
1630934642371,39940,310841,217296
1630934642381,39914,310783,217206
1630934642391,39893,310693,217155
1630934642401,39895,310775,217146
1630934642411,39898,310786,217142
1630934642421,39897,310800,217167
1630934642431,39879,310811,217098
1630934642441,39860,310751,217039
1630934642451,39854,310734,216984
1630934642461,39851,310690,216940
1630934642471,39863,310630,216921
1630934642481,39841,310678,216900
1630934642491,39858,310637,216883
1630934642501,39832,310613,216826
1630934642511,39839,310637,216814
1630934642521,39839,310587,216773
1630934642531,39838,310579,216779
1630934642541,39836,310594,216767
1630934642551,39829,310614,216785
1630934642561,39824,310613,216752
1630934642571,39811,310601,216697
1630934642581,39808,310579,216719
1630934642591,39810,310562,216717
1630934642601,39816,310580,216697
1630934642611,39803,310598,216710
1630934642621,39810,310588,216685
1630934642631,39801,310569,216643
1630934642641,39790,310580,216611
1630934642651,39803,310575,216583
1630934642661,39807,310526,216624
1630934642671,39823,310569,216608
1630934642681,39848,310566,216611
1630934642691,39867,310526,216649
1630934642701,39883,310549,216670
1630934642711,39904,310528,216681
1630934642721,39908,310553,216686
1630934642731,39917,310558,216675
1630934642741,39921,310567,216701
1630934642751,39919,310615,216693
1630934642761,39916,310668,216689
1630934642771,39931,310659,216675
1630934642781,39921,310617,216667
1630934642791,39925,310625,216656
1630934642801,39923,310581,216596
1630934642811,39917,310635,216584
1630934642821,39918,310543,216587
1630934642831,39930,310544,216557
1630934642841,39930,310548,216581
1630934642851,39938,310547,216621
1630934642861,39942,310571,216641
1630934642871,39951,310572,216644
1630934642881,39932,310539,216627
1630934642891,39921,310526,216596
1630934642901,39924,310564,216635
1630934642911,39923,310645,216656
1630934642921,39921,310696,216670
1630934642931,39919,310688,216638
1630934642941,39911,310645,216656
1630934642951,39932,310577,216626
1630934642961,39943,310584,216641
1630934642971,39950,310567,216677
1630934642981,39955,310581,216689
1630934642991,39957,310658,216722
1630934643001,39955,310720,216746
1630934643011,39949,310705,216773
1630934643021,39942,310803,216790
1630934643031,39933,310836,216757
1630934643041,39932,310773,216742
1630934643051,39932,310849,216767
1630934643061,39935,310771,216760
1630934643071,39933,310779,216718
1630934643081,39923,310750,216701
1630934643091,39915,310773,216706
1630934643101,39905,310775,216684
1630934643111,39912,310761,216654
1630934643121,39924,310792,216665
1630934643131,39924,310798,216675
1630934643141,39934,310806,216686
1630934643151,39933,310820,216685
1630934643161,39947,310814,216663
1630934643171,39947,310859,216684
1630934643181,39947,310819,216706
1630934643191,39950,310842,216704
1630934643201,39943,310897,216704
1630934643211,39939,310947,216763
1630934643221,39941,310962,216756
1630934643231,39942,310992,216770
1630934643241,39940,311020,216761
1630934643251,39935,311027,216738
1630934643261,39923,311028,216702
1630934643271,39922,311057,216683
1630934643281,39893,311029,216658
1630934643291,39884,311054,216611
1630934643301,39867,311012,216601
1630934643311,39862,311020,216545
1630934643321,39857,311032,216577
1630934643331,39856,311073,216555
1630934643341,39847,310975,216547
1630934643351,39831,311013,216524
1630934643361,39823,310989,216484
1630934643371,39823,311009,216455
1630934643381,39818,311061,216451
1630934643391,39815,311043,216435
1630934643401,39825,311016,216426
1630934643411,39833,311001,216439
1630934643421,39838,310986,216430
1630934643431,39831,311026,216440
1630934643441,39850,311022,216454
1630934643451,39859,311061,216450
1630934643461,39862,311062,216486
1630934643471,39877,311090,216485
1630934643481,39877,311133,216490
1630934643491,39871,311128,216474
1630934643501,39868,311096,216495
1630934643511,39860,311126,216489
1630934643521,39840,311136,216475
1630934643531,39819,311174,216472
1630934643541,39803,311192,216441
1630934643551,39794,311211,216417
1630934643561,39781,311152,216403
1630934643571,39774,311169,216390
1630934643581,39774,311188,216354
1630934643591,39763,311141,216363
1630934643601,39762,311120,216369
1630934643611,39762,311149,216358
1630934643621,39763,311135,216375
1630934643631,39761,311171,216349
1630934643641,39755,311140,216341
1630934643651,39752,311158,216326
1630934643661,39747,311108,216320
1630934643671,39743,311104,216282
1630934643681,39742,311147,216271
1630934643691,39746,311178,216283
1630934643701,39749,311127,216287
1630934643711,39752,311082,216284
1630934643721,39764,311095,216266
1630934643731,39766,311071,216272
1630934643741,39783,311105,216279
1630934643751,39778,311080,216267
1630934643761,39804,311048,216292
1630934643771,39818,311039,216310
1630934643781,39823,311075,216313
1630934643791,39837,311077,216327
1630934643801,39841,311092,216341
1630934643811,39840,311052,216353
1630934643821,39841,311059,216354
1630934643831,39837,311096,216377
1630934643841,39830,311155,216395
1630934643851,39821,311201,216389
1630934643861,39813,311224,216389
1630934643871,39816,311161,216344
1630934643881,39812,311147,216314
1630934643891,39819,311084,216294
1630934643901,39823,311074,216303
1630934643911,39845,311068,216271
1630934643921,39845,311045,216274
1630934643931,39860,311008,216268
1630934643941,39874,311005,216286
1630934643951,39880,311020,216296
1630934643961,39867,311003,216268
1630934643971,39864,311011,216224
1630934643981,39858,310945,216177
1630934643991,39863,310966,216162
1630934644001,39873,310942,216144
1630934644011,39889,310895,216136
1630934644021,39901,310888,216124
1630934644031,39910,310825,216120
1630934644041,39923,310807,216093
1630934644051,39943,310851,216058
1630934644061,39939,310788,216054
1630934644071,39951,310782,216061
1630934644081,39965,310765,216066
1630934644091,39950,310811,216078
1630934644101,39956,310782,216055
1630934644111,39945,310831,216081
1630934644121,39924,310751,216021
1630934644131,39921,310810,216057
1630934644141,39891,310842,216025
1630934644151,39878,310769,215993
1630934644161,39863,310771,215948
1630934644171,39855,310725,215917
1630934644181,39855,310721,215917
1630934644191,39844,310740,215900
1630934644201,39833,310738,215921
1630934644211,39822,310770,215877
1630934644221,39817,310766,215850
1630934644231,39811,310765,215836
1630934644241,39806,310799,215821
1630934644251,39792,310771,215810
1630934644261,39785,310766,215783
1630934644271,39780,310701,215754
1630934644281,39782,310774,215765
1630934644291,39775,310741,215726
1630934644301,39764,310748,215727
1630934644311,39749,310765,215702
1630934644321,39743,310753,215699
1630934644331,39744,310732,215676
1630934644341,39737,310711,215639
1630934644351,39726,310721,215630
1630934644361,39716,310725,215583
1630934644371,39720,310719,215561
1630934644381,39722,310716,215587
1630934644391,39712,310685,215558
1630934644401,39720,310693,215540
1630934644411,39718,310763,215538
1630934644421,39719,310702,215547
1630934644431,39731,310721,215558
1630934644441,39725,310689,215561
1630934644451,39710,310724,215544
1630934644461,39712,310693,215530
1630934644471,39713,310675,215485
1630934644481,39701,310706,215456
1630934644491,39694,310686,215455
1630934644501,39697,310653,215449
1630934644511,39692,310679,215440
1630934644521,39697,310636,215425
1630934644531,39696,310670,215435
1630934644541,39690,310675,215410
1630934644551,39678,310693,215373
1630934644561,39677,310679,215389
1630934644571,39668,310686,215394
1630934644581,39680,310744,215395
1630934644591,39685,310753,215423
1630934644601,39671,310738,215394
1630934644611,39678,310749,215397
1630934644621,39679,310757,215400
1630934644631,39673,310744,215363
1630934644641,39677,310750,215339
1630934644651,39677,310743,215331
1630934644661,39686,310706,215317
1630934644671,39685,310702,215305
1630934644681,39684,310652,215269
1630934644691,39683,310620,215269
1630934644701,39675,310632,215261
1630934644711,39674,310625,215252
1630934644721,39681,310590,215254
1630934644731,39670,310566,215241
1630934644741,39670,310547,215179
1630934644751,39651,310497,215147
1630934644761,39646,310450,215114
1630934644771,39649,310438,215077
1630934644781,39649,310394,215075
1630934644791,39642,310388,215049
1630934644801,39627,310347,215008
1630934644811,39620,310307,214978
1630934644821,39612,310282,214936
1630934644831,39616,310218,214927
1630934644841,39613,310212,214904
1630934644851,39610,310219,214890
1630934644861,39613,310168,214878
1630934644871,39608,310195,214855
1630934644881,39613,310135,214829
1630934644891,39617,310121,214817
1630934644901,39609,310130,214842
1630934644911,39612,310166,214818
1630934644921,39613,310140,214839
1630934644931,39598,310209,214824
1630934644941,39600,310140,214809
1630934644951,39595,310180,214830
1630934644961,39602,310151,214802
1630934644971,39609,310181,214808
1630934644981,39605,310187,214816
1630934644991,39606,310147,214816
1630934645001,39608,310167,214814
1630934645011,39609,310172,214842
1630934645021,39609,310228,214818
1630934645031,39619,310170,214810
1630934645041,39618,310161,214809
1630934645051,39622,310186,214785
1630934645061,39620,310176,214823
1630934645071,39625,310213,214789
1630934645081,39633,310170,214794
1630934645091,39630,310163,214790
1630934645101,39632,310214,214816
1630934645111,39633,310154,214807
1630934645121,39639,310133,214823
1630934645131,39635,310153,214782
1630934645141,39629,310160,214780
1630934645151,39631,310154,214762
1630934645161,39628,310123,214746
1630934645171,39630,310107,214745
1630934645181,39638,310103,214750
1630934645191,39642,310057,214696
1630934645201,39641,310062,214691
1630934645211,39642,310018,214687
1630934645221,39645,310032,214659
1630934645231,39660,310028,214670
1630934645241,39651,310010,214678
1630934645251,39667,310009,214664
1630934645261,39670,309996,214655
1630934645271,39653,310010,214673
1630934645281,39653,310035,214646
1630934645291,39645,310031,214623
1630934645301,39642,309956,214583
1630934645311,39645,309997,214556
1630934645321,39644,309926,214554
1630934645331,39633,309894,214499
1630934645341,39626,309836,214511
1630934645351,39625,309837,214490
1630934645361,39615,309816,214480
1630934645371,39615,309771,214487
1630934645381,39629,309812,214478
1630934645391,39634,309801,214477
1630934645401,39613,309757,214460
1630934645411,39613,309757,214478
1630934645421,39611,309777,214467
1630934645431,39602,309734,214476
1630934645441,39607,309702,214462
1630934645451,39602,309746,214445
1630934645461,39604,309706,214466
1630934645471,39603,309739,214455
1630934645481,39609,309686,214459
1630934645491,39600,309691,214469
1630934645501,39591,309729,214447
1630934645511,39588,309744,214420
1630934645521,39576,309747,214455
1630934645531,39570,309753,214441
1630934645541,39567,309735,214427
1630934645551,39566,309734,214413
1630934645561,39560,309712,214392
1630934645571,39536,309704,214364
1630934645581,39516,309682,214331
1630934645591,39523,309661,214336
1630934645601,39510,309685,214293
1630934645611,39508,309597,214299
1630934645621,39504,309617,214282
1630934645631,39502,309620,214259
1630934645641,39508,309592,214268
1630934645651,39514,309588,214271
1630934645661,39527,309592,214291
1630934645671,39528,309608,214303
1630934645681,39530,309599,214280
1630934645691,39521,309634,214324
1630934645701,39531,309613,214303
1630934645711,39527,309635,214297
1630934645721,39536,309688,214304
1630934645731,39525,309622,214291
1630934645741,39527,309649,214314
1630934645751,39529,309675,214319
1630934645761,39529,309641,214339
1630934645771,39536,309666,214366
1630934645781,39545,309733,214406
1630934645791,39545,309769,214441
1630934645801,39541,309783,214465
1630934645811,39531,309794,214449
1630934645821,39525,309818,214463
1630934645831,39524,309836,214458
1630934645841,39524,309875,214486
1630934645851,39525,309887,214481
1630934645861,39514,309880,214475
1630934645871,39519,309859,214482
1630934645881,39523,309849,214468
1630934645891,39527,309912,214426
1630934645901,39517,309890,214461
1630934645911,39517,309862,214466
1630934645921,39505,309861,214441
1630934645931,39500,309891,214448
1630934645941,39476,309854,214410
1630934645951,39471,309870,214396
1630934645961,39474,309810,214401
1630934645971,39469,309801,214402
1630934645981,39465,309803,214388
1630934645991,39455,309773,214391
1630934646001,39462,309776,214388
1630934646011,39463,309796,214404
1630934646021,39467,309786,214428
1630934646031,39467,309770,214411
1630934646041,39468,309780,214430
1630934646051,39469,309758,214434
1630934646061,39478,309771,214461
1630934646071,39475,309751,214463
1630934646081,39489,309795,214485
1630934646091,39480,309739,214495
1630934646101,39480,309796,214506
1630934646111,39481,309813,214515
1630934646121,39489,309788,214522
1630934646131,39489,309844,214551
1630934646141,39485,309806,214525
1630934646151,39483,309849,214556
1630934646161,39477,309858,214555
1630934646171,39478,309842,214526
1630934646181,39472,309850,214554
1630934646191,39470,309828,214565
1630934646201,39472,309845,214556
1630934646211,39471,309794,214568
1630934646221,39458,309842,214541
1630934646231,39462,309817,214522
1630934646241,39458,309813,214566
1630934646251,39457,309841,214546
1630934646261,39450,309844,214539
1630934646271,39444,309816,214572
1630934646281,39437,309799,214552
1630934646291,39440,309842,214550
1630934646301,39437,309855,214552
1630934646311,39428,309845,214582
1630934646321,39421,309862,214550
1630934646331,39425,309878,214555
1630934646341,39422,309901,214568
1630934646351,39429,309858,214534
1630934646361,39434,309910,214522
1630934646371,39437,309884,214544
1630934646381,39434,309900,214547
1630934646391,39423,309923,214544
1630934646401,39422,309930,214578
1630934646411,39425,309938,214544
1630934646421,39419,309892,214532
1630934646431,39411,309899,214510
1630934646441,39399,309858,214505
1630934646451,39403,309925,214484
1630934646461,39398,309836,214467
1630934646471,39396,309818,214431
1630934646481,39391,309860,214423
1630934646491,39389,309860,214417
1630934646501,39389,309862,214415
1630934646511,39388,309855,214421
1630934646521,39390,309903,214447
1630934646531,39389,309897,214437
1630934646541,39376,309857,214442
1630934646551,39371,309863,214443
1630934646561,39350,309863,214421
1630934646571,39350,309842,214435
1630934646581,39337,309830,214398
1630934646591,39321,309815,214413
1630934646601,39317,309837,214439
1630934646611,39304,309793,214406
1630934646621,39294,309862,214415
1630934646631,39285,309850,214413
1630934646641,39270,309838,214392
1630934646651,39264,309888,214396
1630934646661,39265,309843,214401
1630934646671,39255,309834,214406
1630934646681,39261,309840,214401
1630934646691,39250,309857,214393
1630934646701,39251,309801,214393
1630934646711,39246,309832,214426
1630934646721,39243,309869,214415
1630934646731,39234,309826,214417
1630934646741,39225,309847,214417
1630934646751,39222,309819,214396
1630934646761,39208,309917,214396
1630934646771,39200,309866,214388
1630934646781,39196,309865,214357
1630934646791,39183,309895,214347
1630934646801,39170,309864,214326
1630934646811,39162,309802,214283
1630934646821,39152,309808,214254
1630934646831,39152,309789,214238
1630934646841,39134,309807,214224
1630934646851,39133,309816,214231
1630934646861,39136,309779,214244
1630934646871,39136,309748,214216
1630934646881,39148,309784,214205
1630934646891,39138,309815,214221
1630934646901,39130,309780,214228
1630934646911,39127,309805,214212
1630934646921,39124,309792,214221
1630934646931,39113,309804,214218
1630934646941,39115,309817,214184
1630934646951,39110,309795,214209
1630934646961,39108,309812,214179
1630934646971,39105,309831,214193
1630934646981,39090,309805,214176
1630934646991,39093,309805,214159
1630934647001,39090,309796,214166
1630934647011,39095,309830,214143
1630934647021,39075,309811,214125
1630934647031,39080,309767,214119
1630934647041,39067,309821,214131
1630934647051,39069,309798,214099
1630934647061,39058,309799,214093
1630934647071,39051,309780,214097
1630934647081,39053,309802,214099
1630934647091,39050,309786,214088
1630934647101,39048,309775,214090
1630934647111,39039,309769,214094
1630934647121,39033,309836,214061
1630934647131,39028,309788,214048
1630934647141,39009,309770,214033
1630934647151,39007,309753,214032
1630934647161,39005,309735,214055
1630934647171,38997,309787,214037
1630934647181,38992,309729,214029
1630934647191,38994,309702,214032
1630934647201,38989,309729,214031
1630934647211,38980,309724,214065
1630934647221,38978,309761,214047
1630934647231,38975,309739,214070
1630934647241,38973,309732,214080
1630934647251,38966,309704,214055
1630934647261,38967,309711,214058
1630934647271,38960,309718,214051
1630934647281,38952,309694,214048
1630934647291,38947,309726,214068
1630934647301,38946,309700,214061
1630934647311,38948,309729,214058
1630934647321,38945,309733,214062
1630934647331,38940,309714,214061
1630934647341,38940,309687,214057
1630934647351,38933,309708,214045
1630934647361,38930,309690,214049
1630934647371,38934,309671,214048
1630934647381,38930,309700,214069
1630934647391,38930,309682,214070
1630934647401,38936,309704,214062
1630934647411,38933,309677,214030
1630934647421,38919,309649,214031
1630934647431,38920,309658,214038
1630934647441,38924,309669,214026
1630934647451,38932,309645,214016
1630934647461,38926,309638,214048
1630934647471,38926,309657,214020
1630934647481,38928,309636,214001
1630934647491,38933,309648,214019
1630934647501,38924,309634,214015
1630934647511,38927,309659,214024
1630934647521,38924,309663,214008
1630934647531,38924,309679,214001
1630934647541,38926,309646,213992
1630934647551,38925,309627,213979
1630934647561,38924,309627,213995
1630934647571,38927,309623,214015
1630934647581,38932,309648,213992
1630934647591,38933,309623,213996
1630934647601,38937,309620,213998
1630934647611,38940,309637,214002
1630934647621,38934,309644,214019
1630934647631,38949,309662,214045
1630934647641,38940,309633,214038
1630934647651,38957,309670,214050
1630934647661,38952,309677,214031
1630934647671,38957,309666,214047
1630934647681,38950,309660,214050
1630934647691,38958,309677,214060
1630934647701,38957,309716,214041
1630934647711,38954,309713,214077
1630934647721,38964,309734,214068
1630934647731,38967,309722,214098
1630934647741,38963,309748,214127
1630934647751,38960,309738,214114
1630934647761,38959,309723,214117
1630934647771,38953,309742,214124
1630934647781,38955,309707,214123
1630934647791,38943,309728,214134
1630934647801,38945,309680,214117
1630934647811,38940,309723,214116
1630934647821,38926,309699,214104
1630934647831,38915,309689,214126
1630934647841,38920,309711,214130
1630934647851,38912,309715,214132
1630934647861,38911,309667,214114
1630934647871,38903,309667,214130
1630934647881,38899,309670,214141
1630934647891,38892,309649,214137
1630934647901,38899,309665,214129
1630934647911,38890,309691,214149
1630934647921,38889,309633,214138
1630934647931,38879,309635,214146
1630934647941,38880,309644,214140
1630934647951,38883,309676,214151
1630934647961,38883,309645,214132
1630934647971,38871,309637,214114
1630934647981,38893,309632,214108
1630934647991,38878,309630,214122
1630934648001,38884,309596,214139
1630934648011,38890,309612,214108
1630934648021,38883,309623,214116
1630934648031,38892,309602,214125
1630934648041,38894,309598,214136
1630934648051,38889,309591,214138
1630934648061,38900,309640,214153
1630934648071,38899,309593,214171
1630934648081,38892,309625,214165
1630934648091,38893,309635,214150
1630934648101,38895,309617,214161
1630934648111,38891,309591,214167
1630934648121,38885,309633,214153
1630934648131,38883,309640,214138
1630934648141,38895,309614,214137
1630934648151,38888,309616,214137
1630934648161,38884,309632,214155
1630934648171,38900,309623,214146
1630934648181,38899,309617,214144
1630934648191,38912,309640,214125
1630934648201,38909,309665,214137
1630934648211,38905,309668,214140
1630934648221,38902,309583,214142
1630934648231,38909,309630,214134
1630934648241,38909,309640,214161
1630934648251,38911,309657,214157
1630934648261,38914,309639,214165
1630934648271,38910,309624,214160
1630934648281,38924,309644,214146
1630934648291,38919,309652,214169
1630934648301,38934,309704,214171
1630934648311,38929,309651,214169
1630934648321,38937,309680,214175
1630934648331,38943,309665,214174
1630934648341,38939,309722,214190
1630934648351,38955,309653,214199
1630934648361,38944,309651,214184
1630934648371,38946,309641,214219
1630934648381,38941,309655,214210
1630934648391,38947,309609,214229
1630934648401,38944,309638,214216
1630934648411,38939,309602,214232
1630934648421,38933,309613,214206
1630934648431,38927,309607,214239
1630934648441,38945,309609,214232
1630934648451,38927,309588,214237
1630934648461,38934,309593,214248
1630934648471,38928,309581,214248
1630934648481,38935,309574,214236
1630934648491,38915,309580,214241
1630934648501,38919,309559,214236
1630934648511,38905,309580,214233
1630934648521,38911,309568,214246
1630934648531,38907,309595,214273
1630934648541,38906,309575,214250
1630934648551,38897,309562,214262
1630934648561,38899,309576,214248
1630934648571,38899,309606,214256
1630934648581,38892,309602,214241
1630934648591,38893,309569,214246
1630934648601,38902,309593,214246
1630934648611,38899,309527,214232
1630934648621,38911,309578,214269
1630934648631,38901,309605,214244
1630934648641,38890,309551,214263
1630934648651,38893,309544,214244
1630934648661,38900,309567,214251
1630934648671,38898,309581,214273
1630934648681,38897,309598,214257
1630934648691,38893,309554,214260
1630934648701,38893,309603,214267
1630934648711,38889,309579,214259
1630934648721,38894,309587,214268
1630934648731,38888,309611,214254
1630934648741,38883,309639,214247
1630934648751,38885,309554,214257
1630934648761,38887,309605,214263
1630934648771,38885,309583,214249
1630934648781,38893,309604,214272
1630934648791,38890,309626,214244
1630934648801,38915,309616,214243
1630934648811,38893,309597,214248
1630934648821,38898,309606,214268
1630934648831,38900,309636,214263
1630934648841,38903,309617,214247
1630934648851,38897,309633,214245
1630934648861,38905,309631,214260
1630934648871,38903,309632,214221
1630934648881,38904,309644,214235
1630934648891,38902,309627,214242
1630934648901,38909,309666,214239
1630934648911,38899,309698,214240
1630934648921,38902,309678,214241
1630934648931,38912,309674,214239
1630934648941,38918,309683,214230
1630934648951,38924,309650,214251
1630934648961,38917,309664,214247
1630934648971,38921,309663,214265
1630934648981,38916,309699,214269
1630934648991,38908,309658,214267
1630934649001,38905,309633,214273
1630934649011,38906,309636,214274
1630934649021,38908,309625,214292
1630934649031,38909,309655,214285
1630934649041,38905,309615,214291
1630934649051,38901,309607,214269
1630934649061,38904,309599,214316
1630934649071,38906,309599,214310
1630934649081,38895,309593,214307
1630934649091,38899,309584,214287
1630934649101,38910,309618,214281
1630934649111,38890,309616,214297
1630934649121,38888,309613,214321
1630934649131,38891,309594,214319
1630934649141,38882,309594,214284
1630934649151,38877,309631,214320
1630934649161,38878,309603,214304
1630934649171,38876,309587,214291
1630934649181,38876,309615,214322
1630934649191,38875,309598,214296
1630934649201,38874,309616,214301
1630934649211,38876,309583,214304
1630934649221,38881,309610,214327
1630934649231,38882,309635,214335
1630934649241,38887,309650,214333
1630934649251,38887,309637,214306
1630934649261,38897,309638,214377
1630934649271,38907,309634,214336
1630934649281,38890,309645,214388
1630934649291,38894,309701,214423
1630934649301,38911,309671,214409
1630934649311,38907,309702,214448
1630934649321,38909,309705,214444
1630934649331,38908,309758,214464
1630934649341,38917,309747,214470
1630934649351,38913,309781,214460
1630934649361,38919,309730,214464
1630934649371,38928,309793,214477
1630934649381,38926,309788,214491
1630934649391,38935,309815,214489
1630934649401,38940,309789,214508
1630934649411,38941,309826,214542
1630934649421,38948,309830,214541
1630934649431,38960,309838,214543
1630934649441,38965,309834,214563
1630934649451,38958,309879,214548
1630934649461,38973,309889,214571
1630934649471,38968,309891,214592
1630934649481,38973,309888,214611
1630934649491,38978,309854,214615
1630934649501,38983,309899,214637
1630934649511,38986,309937,214660
1630934649521,38999,309963,214668
1630934649531,39006,309976,214668
1630934649541,39002,309955,214699
1630934649551,39011,309955,214693
1630934649561,39016,309967,214678
1630934649571,39025,309981,214702
1630934649581,39023,309952,214690
1630934649591,39026,309964,214708
1630934649601,39034,309953,214708
1630934649611,39022,309938,214717
1630934649621,39030,309933,214730
1630934649631,39031,309901,214729
1630934649641,39023,309888,214737
1630934649651,39022,309878,214754
1630934649661,39033,309894,214750
1630934649671,39031,309904,214781
1630934649681,39030,309947,214758
1630934649691,39022,309917,214770
1630934649701,39022,309870,214782
1630934649711,39022,309888,214795
1630934649721,39021,309893,214768
1630934649731,39019,309931,214769
1630934649741,39028,309877,214769
1630934649751,39015,309885,214770
1630934649761,39026,309901,214792
1630934649771,39023,309911,214816
1630934649781,39022,309888,214792
1630934649791,39027,309875,214797
1630934649801,39017,309914,214797
1630934649811,39017,309870,214806
1630934649821,39024,309916,214823
1630934649831,39021,309876,214827
1630934649841,39029,309905,214836
1630934649851,39033,309938,214851
1630934649861,39035,309954,214836
1630934649871,39038,309905,214860
1630934649881,39046,309967,214859
1630934649891,39045,309949,214853
1630934649901,39050,309997,214883
1630934649911,39048,309945,214861
1630934649921,39050,309971,214867
1630934649931,39053,310002,214880
1630934649941,39054,309976,214884
1630934649951,39061,309992,214923
1630934649961,39063,309982,214920
1630934649971,39068,310067,214937
1630934649981,39076,310013,214938
1630934649991,39079,310057,214971
1630934650001,39085,310045,214970
1630934650011,39093,310083,214982
1630934650021,39100,310102,214987
1630934650031,39109,310123,215049
1630934650041,39112,310142,215049
1630934650051,39122,310133,215044
1630934650061,39123,310166,215042
1630934650071,39126,310136,215047
1630934650081,39132,310145,215089
1630934650091,39143,310147,215105
1630934650101,39141,310154,215106
1630934650111,39149,310192,215115
1630934650121,39155,310166,215154
1630934650131,39164,310186,215160
1630934650141,39178,310215,215191
1630934650151,39175,310204,215172
1630934650161,39185,310164,215185
1630934650171,39186,310216,215199
1630934650181,39191,310226,215204
1630934650191,39202,310248,215194
1630934650201,39207,310308,215225
1630934650211,39213,310300,215235
1630934650221,39213,310274,215254
1630934650231,39225,310318,215295
1630934650241,39232,310334,215308
1630934650251,39230,310360,215301
1630934650261,39242,310329,215330
1630934650271,39241,310314,215338
1630934650281,39245,310298,215344
1630934650291,39235,310272,215326
1630934650301,39236,310276,215335
1630934650311,39237,310257,215338
1630934650321,39233,310273,215333
1630934650331,39236,310329,215364
1630934650341,39236,310278,215355
1630934650351,39236,310310,215368
1630934650361,39248,310255,215352
1630934650371,39242,310259,215409
1630934650381,39251,310291,215404
1630934650391,39246,310302,215400
1630934650401,39255,310296,215396
1630934650411,39247,310298,215420
1630934650421,39248,310331,215428
1630934650431,39256,310330,215423
1630934650441,39247,310305,215417
1630934650451,39244,310293,215426
1630934650461,39253,310271,215409
1630934650471,39250,310345,215427
1630934650481,39245,310310,215418
1630934650491,39247,310338,215455
1630934650501,39240,310339,215448
1630934650511,39249,310333,215445
1630934650521,39258,310349,215470
1630934650531,39250,310337,215483
1630934650541,39250,310354,215467
1630934650551,39252,310350,215458
1630934650561,39247,310365,215473
1630934650571,39250,310366,215476
1630934650581,39267,310348,215483
1630934650591,39263,310347,215447
1630934650601,39269,310347,215465
1630934650611,39255,310318,215460
1630934650621,39256,310319,215459
1630934650631,39259,310352,215465
1630934650641,39260,310331,215459
1630934650651,39255,310370,215461
1630934650661,39261,310350,215455
1630934650671,39261,310346,215461
1630934650681,39266,310352,215446
1630934650691,39270,310378,215474
1630934650701,39271,310343,215447
1630934650711,39288,310433,215420
1630934650721,39276,310364,215449
1630934650731,39284,310377,215445
1630934650741,39277,310387,215447
1630934650751,39283,310406,215472
1630934650761,39285,310366,215437
1630934650771,39285,310391,215436
1630934650781,39285,310395,215453
1630934650791,39287,310425,215434
1630934650801,39286,310419,215454
1630934650811,39289,310385,215464
1630934650821,39295,310425,215460
1630934650831,39301,310411,215470
1630934650841,39302,310420,215482
1630934650851,39296,310446,215472
1630934650861,39296,310390,215459
1630934650871,39304,310405,215447
1630934650881,39303,310467,215484
1630934650891,39309,310434,215448
1630934650901,39320,310482,215447
1630934650911,39313,310429,215428
1630934650921,39320,310440,215456
1630934650931,39313,310429,215435
1630934650941,39322,310415,215434
1630934650951,39327,310416,215451
1630934650961,39333,310471,215452
1630934650971,39326,310437,215477
1630934650981,39327,310445,215499
1630934650991,39331,310454,215500
1630934651001,39328,310449,215518
1630934651011,39334,310441,215495
1630934651021,39340,310400,215497
1630934651031,39329,310427,215512
1630934651041,39337,310377,215519
1630934651051,39343,310412,215513
1630934651061,39341,310424,215500
1630934651071,39333,310399,215532
1630934651081,39345,310406,215502
1630934651091,39339,310402,215525
1630934651101,39339,310381,215527
1630934651111,39336,310393,215501
1630934651121,39333,310402,215531
1630934651131,39334,310411,215521
1630934651141,39333,310390,215521
1630934651151,39334,310401,215510
1630934651161,39328,310377,215531
1630934651171,39327,310384,215515
1630934651181,39328,310418,215522
1630934651191,39329,310416,215495
1630934651201,39342,310396,215520
1630934651211,39339,310402,215527
1630934651221,39340,310394,215501
1630934651231,39344,310419,215537
1630934651241,39349,310436,215540
1630934651251,39338,310414,215541
1630934651261,39348,310382,215545
1630934651271,39353,310412,215540
1630934651281,39360,310454,215539
1630934651291,39353,310416,215525
1630934651301,39351,310439,215549
1630934651311,39355,310439,215531
1630934651321,39362,310413,215531
1630934651331,39352,310405,215528
1630934651341,39360,310429,215533
1630934651351,39363,310453,215526
1630934651361,39369,310492,215557
1630934651371,39366,310440,215542
1630934651381,39373,310479,215541
1630934651391,39360,310474,215560
1630934651401,39374,310438,215556
1630934651411,39386,310454,215557
1630934651421,39376,310466,215570
1630934651431,39380,310476,215548
1630934651441,39384,310471,215572
1630934651451,39381,310486,215562
1630934651461,39382,310476,215539
1630934651471,39391,310499,215526
1630934651481,39390,310448,215558
1630934651491,39392,310450,215555
1630934651501,39394,310539,215538
1630934651511,39394,310466,215521
1630934651521,39396,310469,215529
1630934651531,39409,310484,215554
1630934651541,39405,310448,215536
1630934651551,39415,310463,215560
1630934651561,39413,310452,215567
1630934651571,39423,310495,215542
1630934651581,39409,310502,215538
1630934651591,39410,310482,215531
1630934651601,39409,310460,215538
1630934651611,39409,310493,215539
1630934651621,39403,310503,215531
1630934651631,39403,310460,215526
1630934651641,39398,310513,215504
1630934651651,39403,310514,215498
1630934651661,39408,310476,215481
1630934651671,39411,310482,215493
1630934651681,39410,310509,215484
1630934651691,39417,310524,215477
1630934651701,39413,310474,215480
1630934651711,39399,310485,215480
1630934651721,39411,310480,215502
1630934651731,39411,310464,215502
1630934651741,39407,310492,215496
1630934651751,39405,310445,215498
1630934651761,39403,310424,215489
1630934651771,39409,310441,215481
1630934651781,39408,310439,215477
1630934651791,39407,310457,215481
1630934651801,39405,310431,215498
1630934651811,39404,310422,215478
1630934651821,39410,310400,215481
1630934651831,39407,310425,215468
1630934651841,39414,310427,215442
1630934651851,39413,310441,215473
1630934651861,39407,310485,215491
1630934651871,39412,310458,215464
1630934651881,39419,310416,215462
1630934651891,39408,310425,215495
1630934651901,39411,310433,215477
1630934651911,39414,310437,215482
1630934651921,39412,310423,215504
1630934651931,39415,310469,215503
1630934651941,39413,310453,215496
1630934651951,39416,310415,215484
1630934651961,39414,310467,215502
1630934651971,39428,310464,215509
1630934651981,39427,310441,215516
1630934651991,39422,310486,215499
1630934652001,39432,310460,215495
1630934652011,39423,310496,215485
1630934652021,39429,310440,215505
1630934652031,39422,310457,215455
1630934652041,39424,310465,215480
1630934652051,39421,310432,215457
1630934652061,39410,310444,215454
1630934652071,39395,310404,215421
1630934652081,39396,310384,215426
1630934652091,39381,310351,215411
1630934652101,39378,310385,215383
1630934652111,39373,310380,215359
1630934652121,39358,310328,215344
1630934652131,39356,310335,215318
1630934652141,39348,310341,215291
1630934652151,39348,310357,215276
1630934652161,39341,310305,215288
1630934652171,39356,310355,215260
1630934652181,39329,310312,215243
1630934652191,39330,310305,215255
1630934652201,39332,310246,215195
1630934652211,39324,310325,215216
1630934652221,39316,310316,215199
1630934652231,39313,310259,215185
1630934652241,39313,310305,215168
1630934652251,39305,310267,215136
1630934652261,39296,310307,215149
1630934652271,39300,310263,215105
1630934652281,39296,310263,215073
1630934652291,39280,310253,215077
1630934652301,39281,310252,215076
1630934652311,39271,310191,215034
1630934652321,39272,310221,215057
1630934652331,39278,310245,215044
1630934652341,39281,310268,215033
1630934652351,39257,310195,215024
1630934652361,39258,310203,215030
1630934652371,39260,310183,215004
1630934652381,39256,310189,214986
1630934652391,39257,310225,214999
1630934652401,39249,310230,214974
1630934652411,39243,310216,214950
1630934652421,39234,310099,214952
1630934652431,39238,310140,214921
1630934652441,39227,310134,214947
1630934652451,39226,310108,214935
1630934652461,39222,310131,214911
1630934652471,39222,310124,214900
1630934652481,39217,310114,214924
1630934652491,39219,310101,214893
1630934652501,39227,310093,214906
1630934652511,39218,310071,214889
1630934652521,39208,310117,214877
1630934652531,39210,310097,214895
1630934652541,39207,310092,214899
1630934652551,39205,310135,214890
1630934652561,39206,310141,214913
1630934652571,39204,310155,214897
1630934652581,39207,310170,214922
1630934652591,39209,310158,214925
1630934652601,39214,310128,214936
1630934652611,39209,310168,214935
1630934652621,39208,310185,214948
1630934652631,39212,310169,214941
1630934652641,39208,310197,214923
1630934652651,39216,310210,214936
1630934652661,39227,310183,214928
1630934652671,39215,310195,214946
1630934652681,39219,310235,214940
1630934652691,39206,310174,214923
1630934652701,39208,310158,214927
1630934652711,39208,310175,214925
1630934652721,39206,310157,214900
1630934652731,39201,310131,214905
1630934652741,39200,310171,214884
1630934652751,39194,310169,214876
1630934652761,39193,310183,214884
1630934652771,39194,310133,214847
1630934652781,39196,310152,214838
1630934652791,39187,310161,214843
1630934652801,39187,310130,214833
1630934652811,39192,310154,214845
1630934652821,39191,310134,214823
1630934652831,39192,310143,214828
1630934652841,39201,310156,214799
1630934652851,39199,310154,214808
1630934652861,39200,310181,214809
1630934652871,39204,310124,214825
1630934652881,39205,310168,214822
1630934652891,39213,310156,214825
1630934652901,39210,310163,214848
1630934652911,39209,310195,214825
1630934652921,39212,310196,214851
1630934652931,39215,310184,214855
1630934652941,39214,310202,214860
1630934652951,39221,310218,214849
1630934652961,39224,310181,214846
1630934652971,39229,310200,214835
1630934652981,39238,310205,214827
1630934652991,39232,310229,214838
1630934653001,39231,310207,214804
1630934653011,39221,310205,214807
1630934653021,39231,310151,214805
1630934653031,39230,310183,214769
1630934653041,39218,310187,214787
1630934653051,39214,310169,214784
1630934653061,39221,310181,214767
1630934653071,39226,310234,214769
1630934653081,39225,310166,214768
1630934653091,39230,310197,214775
1630934653101,39226,310174,214795
1630934653111,39228,310141,214785
1630934653121,39235,310148,214810
1630934653131,39231,310142,214784
1630934653141,39226,310100,214779
1630934653151,39228,310111,214776
1630934653161,39225,310114,214786
1630934653171,39227,310100,214766
1630934653181,39229,310105,214777
1630934653191,39229,310096,214788
1630934653201,39226,310100,214752
1630934653211,39220,310103,214789
1630934653221,39218,310169,214773
1630934653231,39216,310104,214777
1630934653241,39211,310088,214782
1630934653251,39217,310096,214774
1630934653261,39212,310063,214791
1630934653271,39222,310110,214794
1630934653281,39203,310091,214773
1630934653291,39197,310077,214761
1630934653301,39199,310091,214760
1630934653311,39202,310084,214738
1630934653321,39206,310070,214757
1630934653331,39199,310048,214743
1630934653341,39189,310072,214730
1630934653351,39191,310047,214735
1630934653361,39189,310083,214734
1630934653371,39195,310051,214720
1630934653381,39190,310033,214687
1630934653391,39200,310074,214722
1630934653401,39191,310104,214705
1630934653411,39186,310053,214683
1630934653421,39185,310079,214703
1630934653431,39187,310046,214713
1630934653441,39186,310058,214702
1630934653451,39190,310039,214698
1630934653461,39201,310025,214690
1630934653471,39193,310060,214704
1630934653481,39204,310075,214688
1630934653491,39196,310033,214726
1630934653501,39201,310101,214731
1630934653511,39204,310082,214721
1630934653521,39208,310045,214763
1630934653531,39204,310082,214753
1630934653541,39218,310135,214720
1630934653551,39224,310065,214772
1630934653561,39241,310077,214801
1630934653571,39249,310071,214815
1630934653581,39252,310122,214845
1630934653591,39263,310083,214868
1630934653601,39266,310112,214882
1630934653611,39275,310144,214888
1630934653621,39279,310159,214930
1630934653631,39288,310191,214947
1630934653641,39309,310195,214979
1630934653651,39311,310203,214969
1630934653661,39318,310241,215009
1630934653671,39331,310272,215032
1630934653681,39340,310283,215046
1630934653691,39354,310267,215072
1630934653701,39350,310301,215077
1630934653711,39353,310333,215128
1630934653721,39369,310309,215142
1630934653731,39374,310352,215120
1630934653741,39377,310332,215191
1630934653751,39382,310375,215175
1630934653761,39384,310314,215218
1630934653771,39400,310320,215205
1630934653781,39398,310389,215228
1630934653791,39411,310360,215242
1630934653801,39418,310404,215250
1630934653811,39440,310377,215291
1630934653821,39451,310439,215306
1630934653831,39460,310425,215337
1630934653841,39475,310413,215361
1630934653851,39482,310444,215390
1630934653861,39496,310437,215420
1630934653871,39521,310429,215444
1630934653881,39537,310487,215514
1630934653891,39552,310475,215563
1630934653901,39564,310503,215568
1630934653911,39565,310505,215618
1630934653921,39560,310506,215607
1630934653931,39556,310538,215618
1630934653941,39543,310510,215608
1630934653951,39568,310500,215639
1630934653961,39557,310536,215620
1630934653971,39580,310542,215648
1630934653981,39576,310540,215686
1630934653991,39585,310474,215683
1630934654001,39571,310518,215645
1630934654011,39570,310466,215676
1630934654021,39582,310517,215724
1630934654031,39593,310494,215759
1630934654041,39590,310514,215746
1630934654051,39604,310520,215789
1630934654061,39602,310516,215804
1630934654071,39606,310481,215807
1630934654081,39611,310560,215858
1630934654091,39597,310478,215853
1630934654101,39589,310528,215829
1630934654111,39612,310499,215877
1630934654121,39603,310532,215868
1630934654131,39606,310522,215858
1630934654141,39605,310532,215883
1630934654151,39609,310555,215909
1630934654161,39607,310560,215927
1630934654171,39601,310527,215915
1630934654181,39595,310546,215892
1630934654191,39596,310564,215906
1630934654201,39600,310515,215878
1630934654211,39594,310549,215907
1630934654221,39605,310515,215884
1630934654231,39606,310513,215874
1630934654241,39614,310527,215892
1630934654251,39621,310486,215879
1630934654261,39625,310476,215909
1630934654271,39631,310500,215903
1630934654281,39652,310485,215914
1630934654291,39663,310438,215938
1630934654301,39678,310461,216000
1630934654311,39696,310480,216001
1630934654321,39698,310527,216014
1630934654331,39702,310520,216017
1630934654341,39706,310488,216036
1630934654351,39718,310489,216057
1630934654361,39721,310487,216060
1630934654371,39727,310500,216090
1630934654381,39723,310508,216101
1630934654391,39730,310568,216109
1630934654401,39735,310577,216088
1630934654411,39737,310573,216110
1630934654421,39736,310587,216123
1630934654431,39751,310531,216146
1630934654441,39755,310607,216142
1630934654451,39744,310579,216147
1630934654461,39757,310580,216148
1630934654471,39751,310588,216137
1630934654481,39767,310606,216201
1630934654491,39759,310607,216187
1630934654501,39753,310586,216192
1630934654511,39757,310606,216226
1630934654521,39769,310599,216272
1630934654531,39785,310645,216285
1630934654541,39778,310654,216298
1630934654551,39787,310619,216283
1630934654561,39787,310656,216255
1630934654571,39789,310610,216286
1630934654581,39799,310662,216284
1630934654591,39798,310703,216289
1630934654601,39812,310668,216275
1630934654611,39812,310677,216296
1630934654621,39812,310669,216291
1630934654631,39805,310718,216265
1630934654641,39815,310723,216263
1630934654651,39815,310701,216277
1630934654661,39815,310630,216281
1630934654671,39819,310750,216303
1630934654681,39820,310700,216334
1630934654691,39826,310716,216336
1630934654701,39835,310670,216353
1630934654711,39836,310667,216343
1630934654721,39841,310670,216375
1630934654731,39841,310634,216395
1630934654741,39833,310617,216420
1630934654751,39852,310627,216407
1630934654761,39848,310634,216450
1630934654771,39839,310622,216430
1630934654781,39843,310622,216470
1630934654791,39847,310632,216467
1630934654801,39840,310632,216515
1630934654811,39846,310634,216487
1630934654821,39836,310615,216459
1630934654831,39836,310560,216483
1630934654841,39839,310597,216506
1630934654851,39841,310648,216482
1630934654861,39841,310592,216517
1630934654871,39842,310592,216498
1630934654881,39839,310601,216520
1630934654891,39833,310655,216500
1630934654901,39833,310635,216511
1630934654911,39836,310613,216559
1630934654921,39840,310660,216515
1630934654931,39846,310672,216546
1630934654941,39850,310643,216525
1630934654951,39851,310630,216572
1630934654961,39848,310700,216549
1630934654971,39836,310644,216546
1630934654981,39836,310651,216549
1630934654991,39845,310662,216565
1630934655001,39841,310661,216551
1630934655011,39847,310635,216562
1630934655021,39844,310649,216545
1630934655031,39843,310657,216574
1630934655041,39839,310621,216574
1630934655051,39847,310631,216575
1630934655061,39853,310650,216603
1630934655071,39853,310622,216608
1630934655081,39853,310677,216605
1630934655091,39854,310682,216589
1630934655101,39863,310686,216600
1630934655111,39860,310660,216612
1630934655121,39862,310670,216613
1630934655131,39866,310671,216598
1630934655141,39853,310648,216604
1630934655151,39848,310709,216602
1630934655161,39842,310687,216585
1630934655171,39839,310674,216600
1630934655181,39840,310694,216615
1630934655191,39834,310668,216586
1630934655201,39830,310731,216588
1630934655211,39834,310676,216564
1630934655221,39827,310661,216551
1630934655231,39831,310700,216559
1630934655241,39837,310699,216530
1630934655251,39831,310679,216538
1630934655261,39831,310722,216565
1630934655271,39838,310699,216550
1630934655281,39847,310688,216557
1630934655291,39833,310708,216528
1630934655301,39840,310726,216567
1630934655311,39835,310734,216555
1630934655321,39834,310742,216562
1630934655331,39836,310751,216555
1630934655341,39831,310709,216581
1630934655351,39831,310741,216582
1630934655361,39831,310729,216561
1630934655371,39830,310756,216547
1630934655381,39832,310742,216561
1630934655391,39836,310756,216563
1630934655401,39844,310704,216564
1630934655411,39840,310780,216582
1630934655421,39849,310781,216555
1630934655431,39845,310793,216568
1630934655441,39840,310783,216537
1630934655451,39847,310749,216544
1630934655461,39842,310754,216570
1630934655471,39849,310828,216587
1630934655481,39846,310797,216600
1630934655491,39849,310796,216574
1630934655501,39852,310825,216602
1630934655511,39858,310802,216607
1630934655521,39856,310841,216655
1630934655531,39848,310808,216646
1630934655541,39845,310773,216649
1630934655551,39843,310782,216633
1630934655561,39843,310783,216638
1630934655571,39835,310789,216651
1630934655581,39835,310787,216614
1630934655591,39833,310738,216622
1630934655601,39841,310785,216646
1630934655611,39833,310730,216649
1630934655621,39830,310764,216633
1630934655631,39819,310757,216635
1630934655641,39820,310733,216652
1630934655651,39823,310723,216637
1630934655661,39821,310764,216638
1630934655671,39824,310715,216647
1630934655681,39822,310722,216624
1630934655691,39807,310703,216630
1630934655701,39814,310697,216642
1630934655711,39809,310723,216640
1630934655721,39821,310733,216627
1630934655731,39801,310737,216624
1630934655741,39815,310743,216614
1630934655751,39811,310746,216639
1630934655761,39816,310751,216625
1630934655771,39807,310705,216623
1630934655781,39797,310759,216637
1630934655791,39801,310727,216635
1630934655801,39800,310698,216608
1630934655811,39801,310705,216622
1630934655821,39795,310752,216634
1630934655831,39796,310684,216622
1630934655841,39797,310688,216598
1630934655851,39803,310720,216616
1630934655861,39804,310690,216614
1630934655871,39801,310744,216620
1630934655881,39802,310720,216614
1630934655891,39816,310712,216587
1630934655901,39807,310686,216628
1630934655911,39810,310753,216625
1630934655921,39808,310727,216610
1630934655931,39812,310701,216607
1630934655941,39813,310751,216638
1630934655951,39804,310715,216609
1630934655961,39798,310722,216607
1630934655971,39804,310721,216625
1630934655981,39808,310735,216622
1630934655991,39809,310718,216644
1630934656001,39820,310745,216632
1630934656011,39822,310731,216626
1630934656021,39818,310760,216655
1630934656031,39813,310791,216626
1630934656041,39814,310810,216637
1630934656051,39814,310819,216640
1630934656061,39807,310766,216639
1630934656071,39817,310794,216639
1630934656081,39813,310784,216640
1630934656091,39817,310770,216631
1630934656101,39817,310817,216671
1630934656111,39818,310813,216655
1630934656121,39823,310810,216633
1630934656131,39820,310786,216670
1630934656141,39820,310833,216639
1630934656151,39816,310804,216649
1630934656161,39823,310832,216656
1630934656171,39829,310854,216645
1630934656181,39831,310849,216666
1630934656191,39828,310800,216670
1630934656201,39829,310827,216661
1630934656211,39841,310876,216692
1630934656221,39827,310876,216672
1630934656231,39840,310891,216670
1630934656241,39837,310869,216671
1630934656251,39843,310874,216664
1630934656261,39841,310890,216655
1630934656271,39841,310909,216629
1630934656281,39835,310918,216673
1630934656291,39837,310882,216641
1630934656301,39843,310903,216657
1630934656311,39855,310901,216682
1630934656321,39857,310941,216713
1630934656331,39855,310911,216697
1630934656341,39854,310940,216721
1630934656351,39863,310920,216739
1630934656361,39860,310934,216760
1630934656371,39869,310884,216744
1630934656381,39865,310890,216776
1630934656391,39869,310887,216755
1630934656401,39874,310882,216778
1630934656411,39874,310848,216760
1630934656421,39868,310882,216784
1630934656431,39860,310867,216771
1630934656441,39856,310845,216765
1630934656451,39868,310835,216776
1630934656461,39852,310878,216776
1630934656471,39865,310877,216802
1630934656481,39866,310893,216812
1630934656491,39854,310918,216787
1630934656501,39855,310885,216794
1630934656511,39861,310882,216792
1630934656521,39862,310893,216788
1630934656531,39864,310865,216788
1630934656541,39843,310804,216789
1630934656551,39861,310848,216792
1630934656561,39853,310862,216796
1630934656571,39853,310867,216803
1630934656581,39858,310822,216768
1630934656591,39856,310852,216782
1630934656601,39856,310856,216781
1630934656611,39850,310854,216792
1630934656621,39860,310866,216778
1630934656631,39853,310848,216781
1630934656641,39852,310860,216775
1630934656651,39849,310864,216785
1630934656661,39849,310878,216797
1630934656671,39848,310877,216783
1630934656681,39851,310881,216788
1630934656691,39857,310905,216796
1630934656701,39858,310853,216791
1630934656711,39864,310857,216817
1630934656721,39856,310850,216793
1630934656731,39861,310876,216800
1630934656741,39860,310890,216770
1630934656751,39867,310826,216793
1630934656761,39871,310863,216795
1630934656771,39869,310876,216801
1630934656781,39865,310893,216776
1630934656791,39868,310934,216790
1630934656801,39874,310891,216805
1630934656811,39877,310915,216825
1630934656821,39877,310887,216832
1630934656831,39878,310901,216847
1630934656841,39881,310916,216836
1630934656851,39888,310904,216810
1630934656861,39876,310878,216813
1630934656871,39892,310909,216850
1630934656881,39914,310877,216824
1630934656891,39912,310845,216889
1630934656901,39934,310856,216882
1630934656911,39940,310862,216898
1630934656921,39948,310823,216895
1630934656931,39971,310881,216931
1630934656941,39969,310869,216960
1630934656951,39983,310863,216955
1630934656961,39988,310876,216970
1630934656971,39998,310892,216971
1630934656981,40014,310900,217003
1630934656991,40030,310923,217033
1630934657001,40048,310905,217035
1630934657011,40063,310900,217060
1630934657021,40081,310874,217086
1630934657031,40093,310880,217090
1630934657041,40108,310880,217109
1630934657051,40111,310874,217097
1630934657061,40110,310842,217096
1630934657071,40122,310897,217114
1630934657081,40135,310860,217120
1630934657091,40142,310818,217145
1630934657101,40152,310860,217141
1630934657111,40169,310850,217163
1630934657121,40195,310883,217189
1630934657131,40206,310877,217225
1630934657141,40230,310899,217298
1630934657151,40245,310881,217340
1630934657161,40261,310865,217367
1630934657171,40273,310835,217393
1630934657181,40294,310864,217424
1630934657191,40309,310812,217476
1630934657201,40312,310836,217500
1630934657211,40325,310823,217538
1630934657221,40337,310825,217554
1630934657231,40343,310800,217593
1630934657241,40346,310767,217603
1630934657251,40355,310807,217649
1630934657261,40370,310828,217643
1630934657271,40375,310787,217660
1630934657281,40392,310807,217701
1630934657291,40394,310833,217695
1630934657301,40396,310816,217709
1630934657311,40396,310813,217717
1630934657321,40405,310823,217731
1630934657331,40400,310780,217733
1630934657341,40411,310819,217726
1630934657351,40416,310773,217735
1630934657361,40410,310785,217734
1630934657371,40411,310811,217721
1630934657381,40410,310772,217731
1630934657391,40411,310735,217725
1630934657401,40407,310794,217738
1630934657411,40412,310722,217728
1630934657421,40408,310769,217764
1630934657431,40417,310735,217771
1630934657441,40414,310748,217738
1630934657451,40413,310782,217751
1630934657461,40411,310767,217756
1630934657471,40407,310785,217748
1630934657481,40412,310751,217766
1630934657491,40415,310747,217764
1630934657501,40407,310776,217770
1630934657511,40404,310725,217762
1630934657521,40405,310719,217755
1630934657531,40386,310761,217733
1630934657541,40384,310784,217717
1630934657551,40380,310733,217723
1630934657561,40368,310743,217678
1630934657571,40366,310725,217685
1630934657581,40360,310729,217653
1630934657591,40347,310761,217640
1630934657601,40343,310756,217636
1630934657611,40340,310770,217591
1630934657621,40323,310747,217598
1630934657631,40323,310723,217588
1630934657641,40315,310764,217567
1630934657651,40311,310717,217547
1630934657661,40304,310755,217533
1630934657671,40296,310773,217540
1630934657681,40299,310742,217486
1630934657691,40302,310721,217489
1630934657701,40294,310719,217480
1630934657711,40291,310729,217477
1630934657721,40284,310726,217466
1630934657731,40273,310742,217445
1630934657741,40275,310753,217434
1630934657751,40269,310718,217451
1630934657761,40276,310697,217456
1630934657771,40269,310731,217430
1630934657781,40273,310708,217444
1630934657791,40268,310721,217436
1630934657801,40272,310739,217420
1630934657811,40270,310726,217424
1630934657821,40274,310737,217455
1630934657831,40281,310713,217397
1630934657841,40283,310734,217416
1630934657851,40272,310753,217427
1630934657861,40277,310762,217377
1630934657871,40264,310706,217408
1630934657881,40272,310722,217395
1630934657891,40271,310775,217401
1630934657901,40271,310754,217393
1630934657911,40279,310722,217411
1630934657921,40286,310794,217410
1630934657931,40291,310820,217451
1630934657941,40300,310812,217438
1630934657951,40300,310791,217444
1630934657961,40300,310765,217483
1630934657971,40304,310748,217496
1630934657981,40313,310743,217486
1630934657991,40306,310755,217501
1630934658001,40310,310741,217473
1630934658011,40288,310744,217502
1630934658021,40302,310755,217485
1630934658031,40282,310752,217505
1630934658041,40284,310743,217469
1630934658051,40293,310751,217495
1630934658061,40288,310737,217478
1630934658071,40276,310792,217498
1630934658081,40291,310755,217508
1630934658091,40278,310745,217526
1630934658101,40285,310770,217496
1630934658111,40277,310738,217530
1630934658121,40275,310756,217519
1630934658131,40279,310747,217526
1630934658141,40274,310789,217530
1630934658151,40290,310769,217520
1630934658161,40268,310756,217528
1630934658171,40291,310742,217533
1630934658181,40285,310796,217550
1630934658191,40274,310820,217537
1630934658201,40273,310789,217520
1630934658211,40280,310757,217540
1630934658221,40281,310789,217538
1630934658231,40277,310807,217566
1630934658241,40278,310772,217548
1630934658251,40277,310825,217558
1630934658261,40289,310813,217585
1630934658271,40294,310803,217582
1630934658281,40284,310800,217587
1630934658291,40286,310803,217547
1630934658301,40288,310849,217591
1630934658311,40289,310832,217587
1630934658321,40287,310867,217566
1630934658331,40293,310848,217568
1630934658341,40286,310855,217539
1630934658351,40285,310862,217538
1630934658361,40287,310837,217551
1630934658371,40282,310823,217559
1630934658381,40291,310843,217541
1630934658391,40292,310846,217560
1630934658401,40287,310847,217563
1630934658411,40283,310874,217553
1630934658421,40284,310898,217564
1630934658431,40286,310880,217531
1630934658441,40286,310888,217540
1630934658451,40284,310903,217555
1630934658461,40285,310845,217556
1630934658471,40291,310842,217535
1630934658481,40298,310885,217541
1630934658491,40290,310880,217537
1630934658501,40293,310888,217511
1630934658511,40286,310878,217540
1630934658521,40290,310895,217529
1630934658531,40288,310895,217520
1630934658541,40270,310922,217507
1630934658551,40276,310874,217497
1630934658561,40272,310914,217480
1630934658571,40282,310916,217472
1630934658581,40276,310894,217480
1630934658591,40279,310912,217468
1630934658601,40269,310905,217448
1630934658611,40266,310923,217428
1630934658621,40267,310942,217439
1630934658631,40261,310893,217436
1630934658641,40254,310943,217439
1630934658651,40264,310890,217434
1630934658661,40264,310907,217413
1630934658671,40266,310935,217412
1630934658681,40270,310924,217412
1630934658691,40269,310950,217422
1630934658701,40269,310943,217428
1630934658711,40271,310930,217449
1630934658721,40275,310964,217447
1630934658731,40265,310930,217438
1630934658741,40265,310918,217443
1630934658751,40265,310907,217432
1630934658761,40265,310924,217419
1630934658771,40258,310932,217423
1630934658781,40259,310893,217421
1630934658791,40255,310916,217420
1630934658801,40255,310921,217443
1630934658811,40246,310891,217440
1630934658821,40240,310895,217425
1630934658831,40238,310900,217416
1630934658841,40230,310920,217418
1630934658851,40230,310892,217399
1630934658861,40218,310866,217410
1630934658871,40223,310950,217396
1630934658881,40213,310888,217380
1630934658891,40206,310893,217390
1630934658901,40197,310887,217380
1630934658911,40193,310899,217356
1630934658921,40192,310896,217373
1630934658931,40188,310908,217361
1630934658941,40195,310887,217370
1630934658951,40190,310924,217368
1630934658961,40194,310926,217364
1630934658971,40198,310891,217383
1630934658981,40202,310917,217350
1630934658991,40188,310914,217370
1630934659001,40194,310928,217377
1630934659011,40179,310946,217352
1630934659021,40183,310923,217349
1630934659031,40164,310915,217357
1630934659041,40163,310909,217340
1630934659051,40154,310928,217325
1630934659061,40162,310956,217302
1630934659071,40157,310935,217317
1630934659081,40158,310919,217285
1630934659091,40146,310913,217286
1630934659101,40147,310880,217244
1630934659111,40141,310876,217249
1630934659121,40138,310924,217241
1630934659131,40141,310926,217217
1630934659141,40136,310920,217242
1630934659151,40138,310945,217230
1630934659161,40139,310941,217244
1630934659171,40140,310928,217257
1630934659181,40147,310901,217238
1630934659191,40146,310959,217220
1630934659201,40150,310948,217219
1630934659211,40156,310936,217234
1630934659221,40145,310933,217222
1630934659231,40145,310986,217219
1630934659241,40149,310942,217221
1630934659251,40144,310978,217217
1630934659261,40139,311018,217227
1630934659271,40154,311025,217231
1630934659281,40152,310997,217222
1630934659291,40156,311041,217223
1630934659301,40147,311009,217240
1630934659311,40144,311012,217212
1630934659321,40150,311022,217217
1630934659331,40146,311017,217240
1630934659341,40146,311035,217232
1630934659351,40141,311041,217240
1630934659361,40137,311055,217213
1630934659371,40132,311046,217195
1630934659381,40138,311076,217196
1630934659391,40139,311107,217197
1630934659401,40138,311051,217198
1630934659411,40139,311064,217181
1630934659421,40145,311080,217207
1630934659431,40141,311108,217184
1630934659441,40144,311124,217229
1630934659451,40144,311096,217169
1630934659461,40153,311110,217210
1630934659471,40137,311134,217189
1630934659481,40158,311111,217214
1630934659491,40149,311074,217198
1630934659501,40143,311081,217206
1630934659511,40133,311087,217185
1630934659521,40132,311071,217165
1630934659531,40113,311099,217165
1630934659541,40103,311094,217157
1630934659551,40100,311123,217120
1630934659561,40091,311122,217130
1630934659571,40087,311080,217112
1630934659581,40081,311117,217098
1630934659591,40076,311158,217073
1630934659601,40065,311114,217108
1630934659611,40074,311122,217085
1630934659621,40071,311148,217109
1630934659631,40060,311091,217090
1630934659641,40066,311124,217097
1630934659651,40058,311107,217090
1630934659661,40053,311087,217106
1630934659671,40038,311102,217077
1630934659681,40048,311124,217086
1630934659691,40049,311130,217089
1630934659701,40049,311167,217091
1630934659711,40047,311160,217079
1630934659721,40045,311133,217057
1630934659731,40044,311130,217076
1630934659741,40043,311137,217053
1630934659751,40041,311147,217083
1630934659761,40039,311166,217053
1630934659771,40029,311126,217063
1630934659781,40040,311154,217062
1630934659791,40035,311166,217030
1630934659801,40026,311115,217000
1630934659811,40024,311113,217027
1630934659821,40021,311152,217019
1630934659831,40014,311174,217000
1630934659841,40005,311165,216978
1630934659851,40002,311171,216976
1630934659861,39989,311189,216931
1630934659871,39989,311187,216930
1630934659881,39983,311206,216939
1630934659891,39972,311196,216922
1630934659901,39972,311176,216933
1630934659911,39974,311197,216920
1630934659921,39968,311165,216922
1630934659931,39957,311160,216913
1630934659941,39974,311260,216905
1630934659951,39978,311246,216918
1630934659961,39970,311222,216901
1630934659971,39970,311269,216915
1630934659981,39967,311231,216902
1630934659991,39957,311254,216898
1630934660001,39961,311247,216918
1630934660011,39959,311238,216923
1630934660021,39940,311256,216911
1630934660031,39942,311277,216890
1630934660041,39938,311268,216899
1630934660051,39938,311255,216880
1630934660061,39941,311254,216872
1630934660071,39953,311283,216909
1630934660081,39951,311269,216840
1630934660091,39953,311260,216875
1630934660101,39959,311317,216875
1630934660111,39946,311301,216858
1630934660121,39955,311290,216875
1630934660131,39953,311306,216825
1630934660141,39958,311295,216864
1630934660151,39960,311337,216847
1630934660161,39960,311324,216873
1630934660171,39965,311314,216855
1630934660181,39976,311328,216867
1630934660191,39974,311335,216871
1630934660201,39978,311343,216880
1630934660211,39979,311335,216887
1630934660221,39977,311336,216913
1630934660231,39978,311312,216913
1630934660241,39978,311314,216895
1630934660251,39983,311333,216910
1630934660261,39978,311305,216918
1630934660271,39977,311329,216936
1630934660281,39977,311323,216916
1630934660291,39969,311305,216925
1630934660301,39978,311277,216915
1630934660311,39964,311329,216923
1630934660321,39965,311275,216926
1630934660331,39969,311267,216925
1630934660341,39971,311300,216936
1630934660351,39977,311265,216950
1630934660361,39969,311293,216939
1630934660371,39978,311284,216960
1630934660381,39973,311305,216953
1630934660391,39964,311293,216942
1630934660401,39959,311280,216946
1630934660411,39955,311306,216926
1630934660421,39961,311268,216917
1630934660431,39956,311286,216917
1630934660441,39951,311294,216904
1630934660451,39957,311296,216899
1630934660461,39959,311283,216885
1630934660471,39954,311279,216914
1630934660481,39957,311263,216905
1630934660491,39955,311333,216883
1630934660501,39962,311290,216886
1630934660511,39957,311274,216899
1630934660521,39953,311267,216892
1630934660531,39951,311266,216873
1630934660541,39954,311324,216903
1630934660551,39948,311307,216894
1630934660561,39951,311288,216883
1630934660571,39948,311305,216870
1630934660581,39946,311286,216868
1630934660591,39954,311282,216903
1630934660601,39956,311308,216886
1630934660611,39950,311304,216879
1630934660621,39954,311273,216862
1630934660631,39961,311277,216872
1630934660641,39953,311311,216869
1630934660651,39950,311309,216859
1630934660661,39954,311322,216871
1630934660671,39945,311277,216862
1630934660681,39953,311316,216880
1630934660691,39954,311325,216861
1630934660701,39952,311297,216855
1630934660711,39955,311289,216866
1630934660721,39955,311275,216850
1630934660731,39955,311318,216847
1630934660741,39948,311324,216839
1630934660751,39958,311302,216831
1630934660761,39957,311335,216833
1630934660771,39965,311291,216839
1630934660781,39954,311336,216835
1630934660791,39972,311367,216828
1630934660801,39960,311326,216836
1630934660811,39961,311362,216844
1630934660821,39965,311371,216831
1630934660831,39956,311314,216804
1630934660841,39959,311341,216820
1630934660851,39968,311338,216829
1630934660861,39962,311329,216837
1630934660871,39973,311338,216825
1630934660881,39969,311374,216838
1630934660891,39969,311332,216819
1630934660901,39965,311403,216840
1630934660911,39983,311347,216821
1630934660921,39972,311395,216830
1630934660931,39980,311343,216841
1630934660941,39987,311415,216829
1630934660951,39988,311391,216843
1630934660961,39977,311398,216851
1630934660971,39984,311378,216873
1630934660981,39979,311399,216885
1630934660991,39980,311339,216876
1630934661001,39986,311349,216875
1630934661011,39982,311365,216851
1630934661021,39976,311337,216857
1630934661031,39978,311383,216871
1630934661041,39975,311309,216851
1630934661051,39975,311348,216866
1630934661061,39975,311340,216853
1630934661071,39981,311305,216844
1630934661081,39982,311365,216847
1630934661091,39970,311309,216887
1630934661101,39976,311320,216857
1630934661111,39963,311358,216861
1630934661121,39965,311382,216864
1630934661131,39962,311347,216828
1630934661141,39960,311367,216840
1630934661151,39961,311345,216833
1630934661161,39955,311321,216835
1630934661171,39953,311332,216852
1630934661181,39952,311319,216825
1630934661191,39959,311330,216845
1630934661201,39956,311348,216829
1630934661211,39954,311318,216826
1630934661221,39956,311328,216822
1630934661231,39959,311299,216843
1630934661241,39969,311385,216840
1630934661251,39966,311379,216843
1630934661261,39965,311316,216816
1630934661271,39955,311375,216817
1630934661281,39961,311321,216835
1630934661291,39959,311349,216834
1630934661301,39953,311337,216845
1630934661311,39960,311340,216823
1630934661321,39952,311286,216815
1630934661331,39953,311307,216810
1630934661341,39962,311338,216817
1630934661351,39959,311345,216808
1630934661361,39962,311319,216827
1630934661371,39962,311338,216817
1630934661381,39964,311334,216801
1630934661391,39975,311349,216823
1630934661401,39959,311335,216840
1630934661411,39968,311348,216797
1630934661421,39976,311333,216807
1630934661431,39981,311364,216811
1630934661441,39976,311349,216828
1630934661451,39967,311330,216841
1630934661461,39971,311366,216820
1630934661471,39968,311409,216826
1630934661481,39968,311393,216818
1630934661491,39967,311394,216827
1630934661501,39974,311416,216810
1630934661511,39970,311402,216815
1630934661521,39971,311377,216806
1630934661531,39970,311421,216846
1630934661541,39979,311425,216840
1630934661551,39980,311407,216838
1630934661561,39986,311393,216854
1630934661571,39980,311442,216841
1630934661581,39982,311435,216815
1630934661591,39972,311437,216820
1630934661601,39985,311447,216836
1630934661611,39981,311448,216843
1630934661621,39971,311459,216860
1630934661631,39986,311437,216857
1630934661641,39996,311478,216848
1630934661651,40005,311444,216853
1630934661661,39996,311455,216853
1630934661671,40000,311452,216849
1630934661681,39996,311459,216862
1630934661691,40000,311473,216859
1630934661701,40000,311487,216889
1630934661711,40001,311455,216901
1630934661721,40000,311443,216915
1630934661731,40010,311411,216901
1630934661741,40012,311471,216906
1630934661751,39996,311414,216886
1630934661761,40007,311420,216902
1630934661771,40011,311460,216916
1630934661781,40006,311453,216893
1630934661791,40001,311451,216924
1630934661801,40009,311405,216907
1630934661811,40007,311393,216898
1630934661821,40004,311439,216893
1630934661831,39995,311394,216897
1630934661841,40008,311425,216907
1630934661851,40003,311409,216891
1630934661861,39994,311419,216883
1630934661871,39988,311422,216899
1630934661881,40006,311432,216870
1630934661891,39997,311406,216893
1630934661901,40005,311382,216911
1630934661911,39987,311434,216889
1630934661921,39987,311413,216873
1630934661931,39989,311385,216882
1630934661941,39990,311388,216876
1630934661951,40000,311375,216866
1630934661961,40001,311371,216896
1630934661971,40000,311373,216904
1630934661981,40005,311351,216890
1630934661991,40006,311423,216863
1630934662001,40000,311401,216879
1630934662011,39995,311367,216868
1630934662021,39992,311394,216858
1630934662031,39981,311333,216863
1630934662041,39993,311400,216856
1630934662051,39987,311368,216854
1630934662061,39987,311381,216828
1630934662071,39983,311379,216840
1630934662081,39997,311399,216835
1630934662091,39985,311359,216839
1630934662101,39979,311380,216834
1630934662111,39985,311363,216841
1630934662121,39988,311365,216841
1630934662131,39984,311351,216851
1630934662141,39986,311381,216835
1630934662151,39987,311413,216830
1630934662161,39995,311382,216842
1630934662171,39992,311335,216841
1630934662181,39995,311380,216832
1630934662191,40001,311405,216819
1630934662201,40003,311450,216828
1630934662211,39994,311384,216815
1630934662221,39991,311417,216810
1630934662231,39998,311394,216816
1630934662241,40002,311405,216817
1630934662251,39991,311364,216822
1630934662261,40002,311385,216804
1630934662271,39987,311401,216783
1630934662281,40010,311363,216799
1630934662291,40014,311380,216811
1630934662301,40002,311399,216770
1630934662311,40004,311364,216776
1630934662321,40007,311360,216799
1630934662331,40003,311323,216798
1630934662341,40000,311374,216792
1630934662351,40005,311385,216781
1630934662361,40007,311370,216789
1630934662371,40014,311392,216784
1630934662381,40016,311350,216818
1630934662391,40021,311381,216839
1630934662401,40013,311367,216801
1630934662411,40022,311350,216817
1630934662421,40007,311351,216818
1630934662431,40006,311346,216803
1630934662441,40011,311345,216822
1630934662451,40007,311311,216824
1630934662461,40004,311332,216824
1630934662471,40005,311362,216824
1630934662481,40017,311294,216814
1630934662491,40004,311352,216815
1630934662501,40013,311314,216846
1630934662511,40010,311315,216820
1630934662521,39998,311323,216806
1630934662531,39999,311264,216825
1630934662541,40002,311278,216817
1630934662551,40002,311273,216831
1630934662561,40011,311266,216807
1630934662571,40000,311298,216814
1630934662581,39996,311257,216814
1630934662591,39992,311271,216823
1630934662601,39986,311269,216798
1630934662611,39971,311269,216770
1630934662621,39974,311263,216782
1630934662631,39978,311267,216792
1630934662641,39969,311235,216754
1630934662651,39965,311295,216746
1630934662661,39966,311224,216768
1630934662671,39974,311252,216746
1630934662681,39971,311238,216762
1630934662691,39969,311299,216768
1630934662701,39970,311271,216737
1630934662711,39968,311254,216738
1630934662721,39957,311283,216724
1630934662731,39959,311269,216753
1630934662741,39956,311219,216726
1630934662751,39963,311275,216746
1630934662761,39958,311237,216700
1630934662771,39953,311247,216697
1630934662781,39950,311244,216708
1630934662791,39948,311243,216697
1630934662801,39944,311204,216703
1630934662811,39945,311214,216699
1630934662821,39945,311247,216676
1630934662831,39942,311216,216688
1630934662841,39947,311191,216688
1630934662851,39946,311251,216670
1630934662861,39945,311208,216672
1630934662871,39938,311215,216662
1630934662881,39932,311227,216652
1630934662891,39930,311179,216641
1630934662901,39923,311199,216643
1630934662911,39923,311186,216626
1630934662921,39928,311206,216639
1630934662931,39915,311225,216649
1630934662941,39925,311207,216631
1630934662951,39917,311164,216611
1630934662961,39919,311165,216585
1630934662971,39910,311194,216573
1630934662981,39911,311160,216583
1630934662991,39910,311171,216588
1630934663001,39904,311160,216540
1630934663011,39904,311161,216551
1630934663021,39901,311124,216527
1630934663031,39898,311183,216519
1630934663041,39895,311146,216504
1630934663051,39888,311133,216494
1630934663061,39886,311147,216477
1630934663071,39888,311132,216469
1630934663081,39884,311085,216466
1630934663091,39887,311135,216414
1630934663101,39885,311117,216443
1630934663111,39886,311083,216443
1630934663121,39894,311134,216463
1630934663131,39898,311125,216458
1630934663141,39889,311138,216469
1630934663151,39891,311119,216486
1630934663161,39898,311090,216474
1630934663171,39898,311090,216514
1630934663181,39902,311081,216502
1630934663191,39893,311098,216475
1630934663201,39897,311096,216507
1630934663211,39891,311093,216476
1630934663221,39889,311057,216521
1630934663231,39887,311100,216488
1630934663241,39888,311074,216516
1630934663251,39894,311057,216526
1630934663261,39890,311099,216501
1630934663271,39883,311081,216511
1630934663281,39885,311107,216511
1630934663291,39878,311066,216505
1630934663301,39875,311102,216503
1630934663311,39874,311074,216521
1630934663321,39874,311082,216512
1630934663331,39863,311105,216514
1630934663341,39872,311096,216492
1630934663351,39864,311049,216488
1630934663361,39868,311106,216468
1630934663371,39861,311104,216484
1630934663381,39860,311083,216472
1630934663391,39862,311115,216451
1630934663401,39853,311089,216465
1630934663411,39853,311058,216449
1630934663421,39849,311029,216469
1630934663431,39852,311072,216472
1630934663441,39848,311030,216479
1630934663451,39851,311091,216469
1630934663461,39850,311051,216464
1630934663471,39846,311073,216493
1630934663481,39851,311050,216457
1630934663491,39850,311115,216472
1630934663501,39845,311051,216484
1630934663511,39851,311079,216494
1630934663521,39851,311062,216466
1630934663531,39848,311096,216474
1630934663541,39845,311093,216483
1630934663551,39837,311069,216500
1630934663561,39838,311122,216488
1630934663571,39841,311080,216488
1630934663581,39834,311111,216503
1630934663591,39837,311084,216493
1630934663601,39836,311145,216489
1630934663611,39830,311130,216505
1630934663621,39830,311153,216510
1630934663631,39835,311144,216493
1630934663641,39828,311134,216501
1630934663651,39820,311158,216508
1630934663661,39834,311154,216514
1630934663671,39827,311166,216467
1630934663681,39831,311150,216496
1630934663691,39838,311152,216467
1630934663701,39830,311182,216521
1630934663711,39832,311171,216496
1630934663721,39830,311166,216513
1630934663731,39831,311183,216544
1630934663741,39830,311177,216493
1630934663751,39836,311184,216513
1630934663761,39836,311182,216520
1630934663771,39830,311151,216506
1630934663781,39830,311181,216492
1630934663791,39832,311172,216497
1630934663801,39832,311174,216535
1630934663811,39826,311182,216513
1630934663821,39834,311189,216521
1630934663831,39840,311205,216488
1630934663841,39836,311218,216495
1630934663851,39852,311197,216512
1630934663861,39834,311181,216487
1630934663871,39851,311224,216496
1630934663881,39848,311205,216508
1630934663891,39840,311210,216548
1630934663901,39837,311198,216554
1630934663911,39850,311211,216533
1630934663921,39847,311156,216537
1630934663931,39840,311129,216537
1630934663941,39842,311166,216556
1630934663951,39841,311163,216522
1630934663961,39837,311139,216553
1630934663971,39848,311149,216562
1630934663981,39831,311147,216545
1630934663991,39837,311098,216548
1630934664001,39832,311129,216547
1630934664011,39823,311175,216548
1630934664021,39811,311071,216547
1630934664031,39813,311146,216543
1630934664041,39810,311117,216517
1630934664051,39815,311100,216543
1630934664061,39804,311106,216539
1630934664071,39811,311111,216537
1630934664081,39809,311098,216522
1630934664091,39798,311136,216518
1630934664101,39800,311116,216523
1630934664111,39792,311119,216524
1630934664121,39792,311098,216522
1630934664131,39804,311127,216518
1630934664141,39804,311139,216517
1630934664151,39794,311122,216503
1630934664161,39797,311123,216526
1630934664171,39795,311118,216522
1630934664181,39795,311136,216500
1630934664191,39793,311090,216521
1630934664201,39779,311101,216526
1630934664211,39785,311125,216525
1630934664221,39784,311113,216522
1630934664231,39787,311082,216502
1630934664241,39781,311118,216525
1630934664251,39789,311094,216523
1630934664261,39787,311135,216512
1630934664271,39774,311095,216501
1630934664281,39777,311083,216546
1630934664291,39772,311131,216515
1630934664301,39775,311130,216522
1630934664311,39787,311093,216515
1630934664321,39784,311118,216531
1630934664331,39784,311081,216531
1630934664341,39773,311145,216510
1630934664351,39778,311097,216534
1630934664361,39780,311135,216500
1630934664371,39782,311117,216507
1630934664381,39780,311122,216500
1630934664391,39772,311107,216474
1630934664401,39766,311153,216468
1630934664411,39756,311102,216439
1630934664421,39749,311104,216418
1630934664431,39751,311077,216403
1630934664441,39742,311044,216397
1630934664451,39732,311034,216384
1630934664461,39738,311047,216362
1630934664471,39722,311051,216310
1630934664481,39725,311018,216309
1630934664491,39725,310991,216308
1630934664501,39728,311003,216286
1630934664511,39722,310982,216275
1630934664521,39706,310960,216232
1630934664531,39694,310924,216208
1630934664541,39688,310987,216194
1630934664551,39683,310937,216143
1630934664561,39675,310934,216124
1630934664571,39666,310906,216113
1630934664581,39652,310892,216096
1630934664591,39648,310856,216059
1630934664601,39639,310879,216016
1630934664611,39630,310818,216008
1630934664621,39625,310826,215938
1630934664631,39613,310784,215877
1630934664641,39598,310687,215826
1630934664651,39575,310660,215741
1630934664661,39540,310622,215643
1630934664671,39519,310483,215515
1630934664681,39482,310359,215395
1630934664691,39449,310312,215292
1630934664701,39403,310176,215170
1630934664711,39369,310120,215068
1630934664721,39339,310071,214992
1630934664731,39306,310034,214886
1630934664741,39282,310014,214832
1630934664751,39250,309942,214768
1630934664761,39232,309927,214693
1630934664771,39202,309921,214650
1630934664781,39172,309866,214607
1630934664791,39162,309845,214553
1630934664801,39130,309849,214531
1630934664811,39123,309858,214506
1630934664821,39108,309850,214493
1630934664831,39110,309918,214513
1630934664841,39106,309917,214525
1630934664851,39095,309887,214521
1630934664861,39103,309941,214547
1630934664871,39104,309903,214561
1630934664881,39108,309924,214555
1630934664891,39105,309968,214579
1630934664901,39126,309940,214587
1630934664911,39127,309902,214597
1630934664921,39135,309912,214594
1630934664931,39134,309948,214597
1630934664941,39137,309909,214605
1630934664951,39149,309945,214596
1630934664961,39151,309904,214603
1630934664971,39155,309887,214581
1630934664981,39158,309915,214605
1630934664991,39160,309942,214617
1630934665001,39155,309949,214621
1630934665011,39151,309931,214595
1630934665021,39152,309898,214586
1630934665031,39151,309930,214578
1630934665041,39152,309870,214561
1630934665051,39151,309902,214557
1630934665061,39156,309891,214544
1630934665071,39145,309815,214533
1630934665081,39151,309839,214480
1630934665091,39146,309864,214494
1630934665101,39131,309843,214497
1630934665111,39133,309865,214455
1630934665121,39131,309831,214487
1630934665131,39142,309858,214472
1630934665141,39143,309856,214460
1630934665151,39134,309858,214437
1630934665161,39124,309829,214453
1630934665171,39123,309843,214426
1630934665181,39126,309820,214429
1630934665191,39122,309831,214432
1630934665201,39115,309823,214403
1630934665211,39116,309794,214400
1630934665221,39111,309862,214432
1630934665231,39113,309805,214420
1630934665241,39117,309817,214390
1630934665251,39115,309871,214380
1630934665261,39105,309846,214353
1630934665271,39092,309882,214369
1630934665281,39096,309842,214372
1630934665291,39103,309864,214363
1630934665301,39100,309845,214345
1630934665311,39092,309891,214329
1630934665321,39091,309873,214353
1630934665331,39092,309866,214326
1630934665341,39079,309892,214305
1630934665351,39076,309881,214316
1630934665361,39085,309893,214293
1630934665371,39073,309876,214274
1630934665381,39078,309893,214298
1630934665391,39080,309910,214270
1630934665401,39079,309907,214254
1630934665411,39076,309839,214241
1630934665421,39061,309835,214197
1630934665431,39051,309772,214118
1630934665441,39024,309677,214043
1630934665451,39019,309608,213974
1630934665461,39022,309514,213928
1630934665471,39011,309463,213858
1630934665481,38988,309352,213809
1630934665491,38987,309350,213768
1630934665501,38988,309284,213715
1630934665511,38982,309240,213718
1630934665521,38976,309235,213717
1630934665531,38982,309209,213717
1630934665541,38985,309201,213709
1630934665551,38988,309173,213746
1630934665561,38991,309171,213746
1630934665571,38996,309204,213782
1630934665581,39005,309256,213809
1630934665591,39014,309269,213814
1630934665601,39020,309242,213901
1630934665611,39059,309282,213958
1630934665621,39069,309219,213969
1630934665631,39078,309240,214001
1630934665641,39112,309208,214055
1630934665651,39134,309230,214090
1630934665661,39151,309217,214118
1630934665671,39183,309220,214162
1630934665681,39178,309241,214173
1630934665691,39165,309262,214190
1630934665701,39151,309316,214196
1630934665711,39138,309311,214220
1630934665721,39124,309388,214238
1630934665731,39103,309381,214247
1630934665741,39102,309494,214279
1630934665751,39105,309554,214334
1630934665761,39102,309622,214365
1630934665771,39096,309667,214421
1630934665781,39086,309739,214439
1630934665791,39094,309768,214456
1630934665801,39092,309819,214470
1630934665811,39099,309796,214478
1630934665821,39087,309816,214516
1630934665831,39078,309869,214496
1630934665841,39074,309834,214472
1630934665851,39057,309756,214416
1630934665861,39063,309698,214331
1630934665871,39067,309587,214245
1630934665881,39072,309467,214171
1630934665891,39078,309321,214097
1630934665901,39082,309256,214006
1630934665911,39085,309118,213950
1630934665921,39087,309051,213880
1630934665931,39092,308995,213836
1630934665941,39096,308941,213783
1630934665951,39086,308869,213752
1630934665961,39079,308865,213727
1630934665971,39075,308835,213717
1630934665981,39062,308882,213688
1630934665991,39059,308918,213702
1630934666001,39051,308940,213736
1630934666011,39032,308963,213737
1630934666021,39025,308964,213741
1630934666031,39019,309020,213747
1630934666041,39015,308955,213754
1630934666051,39006,309058,213757
1630934666061,38996,309079,213749
1630934666071,38997,309106,213743
1630934666081,38980,309115,213758
1630934666091,38972,309152,213720
1630934666101,38956,309165,213733
1630934666111,38945,309173,213752
1630934666121,38943,309253,213713
1630934666131,38926,309238,213709
1630934666141,38919,309238,213670
1630934666151,38926,309218,213668
1630934666161,38937,309184,213686
1630934666171,38939,309215,213678
1630934666181,38950,309150,213721
1630934666191,38963,309143,213695
1630934666201,38983,309116,213748
1630934666211,38982,309066,213750
1630934666221,38987,309066,213716
1630934666231,38986,309045,213732
1630934666241,38991,309034,213686
1630934666251,38982,308991,213687
1630934666261,38987,308945,213647
1630934666271,38992,308953,213627
1630934666281,38988,308892,213659
1630934666291,39009,308911,213672
1630934666301,39029,308914,213734
1630934666311,39050,308939,213803
1630934666321,39076,308971,213905
1630934666331,39098,309061,214007
1630934666341,39111,309150,214100
1630934666351,39130,309202,214205
1630934666361,39151,309266,214260
1630934666371,39156,309281,214331
1630934666381,39162,309370,214427
1630934666391,39171,309434,214474
1630934666401,39174,309503,214542
1630934666411,39196,309578,214618
1630934666421,39205,309624,214674
1630934666431,39205,309582,214724
1630934666441,39219,309700,214760
1630934666451,39225,309719,214781
1630934666461,39232,309667,214827
1630934666471,39236,309689,214842
1630934666481,39241,309692,214836
1630934666491,39245,309725,214867
1630934666501,39248,309743,214882
1630934666511,39250,309694,214897
1630934666521,39246,309741,214925
1630934666531,39253,309719,214908
1630934666541,39254,309660,214897
1630934666551,39260,309724,214903
1630934666561,39266,309751,214914
1630934666571,39261,309717,214923
1630934666581,39266,309731,214914
1630934666591,39267,309729,214955
1630934666601,39274,309712,214942
1630934666611,39275,309707,214931
1630934666621,39267,309691,214923
1630934666631,39272,309676,214923
1630934666641,39271,309718,214948
1630934666651,39269,309730,214935
1630934666661,39267,309728,214941
1630934666671,39261,309698,214927
1630934666681,39259,309727,214945
1630934666691,39260,309718,214943
1630934666701,39262,309675,214927
1630934666711,39260,309754,214928
1630934666721,39259,309716,214924
1630934666731,39261,309700,214897
1630934666741,39255,309716,214915
1630934666751,39250,309740,214907
1630934666761,39245,309699,214890
1630934666771,39250,309752,214942
1630934666781,39255,309723,214908
1630934666791,39250,309758,214889
1630934666801,39256,309740,214894
1630934666811,39255,309716,214898
1630934666821,39255,309731,214891
1630934666831,39261,309788,214893
1630934666841,39259,309758,214883
1630934666851,39266,309744,214915
1630934666861,39270,309751,214927
1630934666871,39265,309769,214917
1630934666881,39279,309790,214947
1630934666891,39291,309819,214953
1630934666901,39286,309817,214997
1630934666911,39299,309827,215021
1630934666921,39310,309906,215067
1630934666931,39310,309916,215105
1630934666941,39312,309912,215119
1630934666951,39313,309976,215166
1630934666961,39309,309933,215205
1630934666971,39311,309919,215232
1630934666981,39304,309987,215254
1630934666991,39314,309962,215261
1630934667001,39322,309977,215301
1630934667011,39312,310007,215312
1630934667021,39310,309937,215327
1630934667031,39320,309981,215342
1630934667041,39316,309997,215387
1630934667051,39324,309997,215395
1630934667061,39334,310015,215401
1630934667071,39324,310058,215432
1630934667081,39320,310061,215449
1630934667091,39327,310075,215437
1630934667101,39330,310113,215500
1630934667111,39318,310135,215485
1630934667121,39318,310121,215525
1630934667131,39323,310107,215514
1630934667141,39318,310080,215512
1630934667151,39321,310107,215526
1630934667161,39322,310133,215523
1630934667171,39323,310150,215520
1630934667181,39314,310092,215527
1630934667191,39317,310134,215526
1630934667201,39316,310152,215522
1630934667211,39318,310094,215530
1630934667221,39327,310101,215533
1630934667231,39319,310044,215531
1630934667241,39316,310078,215548
1630934667251,39316,310028,215521
1630934667261,39311,309997,215539
1630934667271,39310,310042,215518
1630934667281,39315,310056,215524
1630934667291,39303,310087,215532
1630934667301,39296,310019,215495
1630934667311,39298,310022,215504
1630934667321,39302,309995,215462
1630934667331,39291,310012,215478
1630934667341,39286,310053,215478
1630934667351,39294,310032,215483
1630934667361,39296,310098,215486
1630934667371,39293,310029,215510
1630934667381,39300,310067,215492
1630934667391,39305,310087,215484
1630934667401,39296,310099,215505
1630934667411,39287,310084,215525
1630934667421,39294,310081,215521
1630934667431,39302,310112,215491
1630934667441,39293,310114,215536
1630934667451,39296,310141,215526
1630934667461,39304,310134,215535
1630934667471,39306,310129,215537
1630934667481,39310,310149,215557
1630934667491,39313,310118,215576
1630934667501,39328,310147,215576
1630934667511,39329,310123,215592
1630934667521,39333,310161,215573
1630934667531,39336,310189,215607
1630934667541,39332,310145,215589
1630934667551,39336,310200,215610
1630934667561,39333,310185,215605
1630934667571,39342,310167,215628
1630934667581,39347,310192,215618
1630934667591,39343,310209,215624
1630934667601,39349,310179,215654
1630934667611,39353,310198,215630
1630934667621,39355,310223,215643
1630934667631,39361,310208,215652
1630934667641,39367,310223,215651
1630934667651,39361,310221,215658
1630934667661,39362,310218,215707
1630934667671,39379,310265,215681
1630934667681,39374,310206,215688
1630934667691,39377,310198,215729
1630934667701,39381,310178,215724
1630934667711,39373,310194,215715
1630934667721,39365,310157,215713
1630934667731,39364,310183,215734
1630934667741,39365,310119,215744
1630934667751,39362,310199,215753
1630934667761,39360,310175,215741
1630934667771,39356,310205,215758
1630934667781,39350,310176,215745
1630934667791,39344,310179,215772
1630934667801,39343,310169,215776
1630934667811,39342,310181,215777
1630934667821,39348,310174,215780
1630934667831,39344,310176,215784
1630934667841,39345,310186,215767
1630934667851,39341,310188,215762
1630934667861,39349,310171,215782
1630934667871,39331,310231,215775
1630934667881,39335,310192,215779
1630934667891,39325,310207,215784
1630934667901,39329,310202,215782
1630934667911,39319,310211,215809
1630934667921,39325,310218,215797
1630934667931,39322,310248,215808
1630934667941,39316,310271,215795
1630934667951,39319,310194,215789
1630934667961,39314,310259,215803
1630934667971,39314,310250,215777
1630934667981,39306,310223,215792
1630934667991,39314,310246,215780
1630934668001,39312,310226,215799
1630934668011,39298,310245,215785
1630934668021,39320,310239,215769
1630934668031,39313,310282,215794
1630934668041,39302,310251,215775
1630934668051,39303,310274,215780
1630934668061,39302,310248,215760
1630934668071,39306,310248,215744
1630934668081,39301,310271,215762
1630934668091,39301,310246,215765
1630934668101,39297,310214,215782
1630934668111,39305,310217,215770
1630934668121,39308,310219,215803
1630934668131,39317,310247,215788
1630934668141,39316,310319,215807
1630934668151,39312,310285,215794
1630934668161,39312,310285,215803
1630934668171,39315,310278,215804
1630934668181,39317,310286,215802
1630934668191,39308,310294,215802
1630934668201,39319,310278,215821
1630934668211,39320,310282,215809
1630934668221,39319,310312,215817
1630934668231,39321,310326,215822
1630934668241,39324,310277,215821
1630934668251,39321,310345,215811
1630934668261,39325,310320,215805
1630934668271,39321,310302,215812
1630934668281,39324,310354,215816
1630934668291,39325,310291,215832
1630934668301,39334,310356,215838
1630934668311,39338,310315,215834
1630934668321,39343,310295,215850
1630934668331,39350,310341,215877
1630934668341,39344,310373,215875
1630934668351,39349,310339,215883
1630934668361,39349,310333,215867
1630934668371,39351,310310,215887
1630934668381,39349,310345,215904
1630934668391,39349,310333,215907
1630934668401,39349,310317,215886
1630934668411,39337,310363,215929
1630934668421,39331,310339,215892
1630934668431,39330,310310,215916
1630934668441,39335,310327,215910
1630934668451,39326,310326,215919
1630934668461,39334,310290,215923
1630934668471,39321,310311,215955
1630934668481,39325,310289,215931
1630934668491,39320,310322,215933
1630934668501,39318,310309,215892
1630934668511,39311,310331,215906
1630934668521,39320,310327,215925
1630934668531,39308,310321,215947
1630934668541,39308,310310,215937
1630934668551,39313,310287,215916
1630934668561,39313,310327,215919
1630934668571,39306,310346,215944
1630934668581,39311,310285,215961
1630934668591,39300,310341,215956
1630934668601,39297,310315,215962
1630934668611,39294,310270,215926
1630934668621,39304,310343,215956
1630934668631,39302,310278,215941
1630934668641,39304,310287,215928
1630934668651,39298,310331,215944
1630934668661,39293,310319,215958
1630934668671,39286,310287,215943
1630934668681,39299,310324,215933
1630934668691,39298,310303,215942
1630934668701,39300,310320,215930
1630934668711,39300,310299,215929
1630934668721,39296,310327,215906
1630934668731,39296,310315,215917
1630934668741,39302,310313,215925
1630934668751,39299,310339,215935
1630934668761,39290,310319,215937
1630934668771,39301,310305,215931
1630934668781,39302,310306,215939
1630934668791,39301,310314,215951
1630934668801,39304,310316,215940
1630934668811,39306,310353,215937
1630934668821,39306,310352,215959
1630934668831,39314,310343,215962
1630934668841,39314,310368,215946
1630934668851,39320,310347,215952
1630934668861,39320,310383,215944
1630934668871,39316,310334,215960
1630934668881,39323,310360,215979
1630934668891,39324,310350,215964
1630934668901,39312,310380,215959
1630934668911,39319,310399,215956
1630934668921,39319,310395,215976
1630934668931,39324,310367,215953
1630934668941,39325,310397,215938
1630934668951,39328,310429,215933
1630934668961,39323,310365,215944
1630934668971,39325,310391,215964
1630934668981,39329,310369,215968
1630934668991,39338,310399,215958
1630934669001,39345,310441,215965
1630934669011,39352,310402,215947
1630934669021,39350,310393,216005
1630934669031,39354,310431,215975
1630934669041,39342,310386,215962
1630934669051,39346,310397,215991
1630934669061,39342,310399,215992
1630934669071,39334,310309,215978
1630934669081,39334,310340,215973
1630934669091,39336,310332,215987
1630934669101,39326,310305,215979
1630934669111,39335,310344,215971
1630934669121,39324,310278,215979
1630934669131,39333,310320,215984
1630934669141,39328,310367,215970
1630934669151,39320,310319,215956
1630934669161,39337,310319,215994
1630934669171,39326,310292,216019
1630934669181,39322,310306,215984
1630934669191,39328,310308,216006
1630934669201,39323,310289,216015
1630934669211,39316,310306,216003
1630934669221,39317,310290,216006
1630934669231,39312,310279,216000
1630934669241,39313,310260,216000
1630934669251,39312,310295,216001
1630934669261,39311,310300,216024
1630934669271,39319,310302,216008
1630934669281,39315,310283,216007
1630934669291,39315,310320,216011
1630934669301,39316,310322,216019
1630934669311,39328,310310,216002
1630934669321,39315,310336,215971
1630934669331,39328,310320,216021
1630934669341,39325,310326,216018
1630934669351,39328,310288,216034
1630934669361,39323,310313,216029
1630934669371,39326,310294,216029
1630934669381,39327,310326,216028
1630934669391,39334,310352,216043
1630934669401,39327,310302,216052
1630934669411,39327,310293,216034
1630934669421,39323,310352,216038
1630934669431,39321,310342,216027
1630934669441,39322,310329,216022
1630934669451,39326,310319,216017
1630934669461,39319,310311,216005
1630934669471,39326,310324,216017
1630934669481,39346,310342,216022
1630934669491,39334,310356,216018
1630934669501,39334,310349,216036
1630934669511,39344,310338,216027
1630934669521,39343,310384,216018
1630934669531,39344,310342,216030
1630934669541,39342,310364,216026
1630934669551,39339,310346,216026
1630934669561,39345,310380,216021
1630934669571,39346,310349,216022
1630934669581,39352,310370,216028
1630934669591,39348,310374,216034
1630934669601,39355,310338,216051
1630934669611,39353,310358,216048
1630934669621,39360,310383,216062
1630934669631,39359,310373,216054
1630934669641,39374,310405,216046
1630934669651,39364,310374,216053
1630934669661,39376,310427,216043
1630934669671,39366,310390,216068
1630934669681,39364,310390,216039
1630934669691,39367,310420,216047
1630934669701,39381,310383,216048
1630934669711,39371,310415,216061
1630934669721,39368,310445,216065
1630934669731,39373,310427,216025
1630934669741,39377,310432,216060
1630934669751,39380,310432,216036
1630934669761,39378,310461,216069
1630934669771,39375,310461,216059
1630934669781,39379,310492,216054
1630934669791,39382,310436,216053
1630934669801,39389,310398,216068
1630934669811,39392,310422,216055
1630934669821,39391,310419,216065
1630934669831,39385,310420,216096
1630934669841,39389,310402,216093
1630934669851,39381,310414,216077
1630934669861,39379,310403,216078
1630934669871,39382,310384,216078
1630934669881,39375,310402,216106
1630934669891,39372,310436,216100
1630934669901,39379,310394,216109
1630934669911,39378,310363,216109
1630934669921,39377,310361,216109
1630934669931,39375,310422,216098
1630934669941,39377,310327,216090
1630934669951,39374,310368,216087
1630934669961,39370,310423,216102
1630934669971,39388,310389,216104
1630934669981,39375,310389,216115
1630934669991,39371,310399,216104
1630934670001,39393,310366,216107
1630934670011,39384,310363,216105
1630934670021,39383,310410,216133
1630934670031,39386,310364,216142
1630934670041,39384,310421,216131
1630934670051,39384,310405,216104
1630934670061,39382,310381,216114
1630934670071,39399,310385,216118
1630934670081,39392,310370,216140
1630934670091,39397,310378,216122
1630934670101,39394,310397,216129
1630934670111,39395,310433,216150
1630934670121,39402,310420,216119
1630934670131,39395,310419,216139
1630934670141,39395,310386,216138
1630934670151,39407,310399,216145
1630934670161,39410,310413,216150
1630934670171,39405,310405,216163
1630934670181,39414,310444,216167
1630934670191,39416,310449,216147
1630934670201,39417,310432,216172
1630934670211,39421,310418,216183
1630934670221,39415,310476,216199
1630934670231,39421,310432,216175
1630934670241,39430,310431,216161
1630934670251,39423,310449,216192
1630934670261,39425,310475,216185
1630934670271,39426,310468,216174
1630934670281,39434,310452,216203
1630934670291,39453,310434,216199
1630934670301,39431,310500,216194
1630934670311,39448,310428,216214
1630934670321,39441,310480,216202
1630934670331,39449,310454,216211
1630934670341,39459,310506,216216
1630934670351,39450,310510,216201
1630934670361,39458,310465,216212
1630934670371,39455,310495,216196
1630934670381,39459,310508,216212
1630934670391,39458,310472,216194
1630934670401,39464,310492,216214
1630934670411,39470,310444,216222
1630934670421,39474,310517,216235
1630934670431,39489,310469,216197
1630934670441,39483,310477,216243
1630934670451,39496,310521,216227
1630934670461,39496,310521,216238
