timestamp,green,ir,red
1631023450727,54476,321983,285629
1631023450737,54475,321946,285636
1631023450747,54475,321982,285630
1631023450757,54478,321973,285626
1631023450767,54467,321967,285661
1631023450777,54485,321942,285639
1631023450787,54487,321947,285642
1631023450797,54478,321937,285626
1631023450807,54481,321934,285620
1631023450817,54483,321975,285649
1631023450827,54486,321983,285670
1631023450837,54499,321936,285672
1631023450847,54497,321980,285643
1631023450857,54494,322021,285652
1631023450867,54503,321966,285650
1631023450877,54508,322010,285658
1631023450887,54510,321966,285664
1631023450897,54509,322028,285688
1631023450907,54515,322021,285681
1631023450917,54545,322026,285678
1631023450927,54545,322022,285714
1631023450937,54553,322088,285727
1631023450947,54561,322123,285719
1631023450957,54558,322093,285762
1631023450967,54559,322096,285748
1631023450977,54567,322105,285741
1631023450987,54572,322118,285730
1631023450997,54568,322086,285740
1631023451007,54580,322117,285758
1631023451017,54584,322110,285730
1631023451027,54587,322147,285765
1631023451037,54599,322121,285770
1631023451047,54611,322066,285758
1631023451057,54615,322099,285796
1631023451067,54632,322060,285745
1631023451077,54636,322140,285766
1631023451087,54628,322136,285779
1631023451097,54635,322112,285761
1631023451107,54645,322122,285733
1631023451117,54643,322106,285746
1631023451127,54658,322138,285744
1631023451137,54655,322104,285718
1631023451147,54657,322113,285784
1631023451157,54653,322087,285818
1631023451167,54661,322109,285845
1631023451177,54642,322118,285947
1631023451187,54637,322167,285995
1631023451197,54614,322151,286093
1631023451207,54595,322202,286225
1631023451217,54573,322215,286277
1631023451227,54550,322255,286385
1631023451237,54536,322247,286464
1631023451247,54512,322284,286584
1631023451257,54493,322300,286729
1631023451267,54461,322321,286859
1631023451277,54432,322367,287007
1631023451287,54424,322368,287123
1631023451297,54410,322375,287288
1631023451307,54398,322415,287399
1631023451317,54385,322404,287502
1631023451327,54381,322419,287613
1631023451337,54381,322487,287679
1631023451347,54377,322429,287814
1631023451357,54406,322468,287899
1631023451367,54423,322485,287976
1631023451377,54452,322508,288082
1631023451387,54496,322596,288126
1631023451397,54535,322548,288199
1631023451407,54580,322604,288228
1631023451417,54621,322679,288227
1631023451427,54672,322684,288259
1631023451437,54717,322667,288275
1631023451447,54746,322737,288280
1631023451457,54790,322740,288316
1631023451467,54816,322794,288269
1631023451477,54847,322829,288231
1631023451487,54869,322870,288224
1631023451497,54886,322908,288185
1631023451507,54908,322973,288132
1631023451517,54930,323010,288049
1631023451527,54941,323036,288007
1631023451537,54956,323048,287917
1631023451547,54977,323067,287915
1631023451557,54980,323071,287826
1631023451567,54989,323074,287793
1631023451577,54998,323070,287763
1631023451587,54998,323074,287703
1631023451597,54992,323066,287715
1631023451607,54985,323059,287705
1631023451617,54986,323087,287658
1631023451627,54974,323074,287653
1631023451637,54970,323027,287668
1631023451647,54968,323049,287660
1631023451657,54960,323060,287639
1631023451667,54953,323026,287631
1631023451677,54946,323043,287590
1631023451687,54954,323003,287616
1631023451697,54957,323034,287592
1631023451707,54951,323076,287604
1631023451717,54965,323000,287583
1631023451727,54965,323017,287587
1631023451737,54961,323074,287591
1631023451747,54982,323005,287593
1631023451757,54993,323077,287589
1631023451767,55011,322993,287569
1631023451777,55015,323023,287539
1631023451787,55024,322972,287564
1631023451797,55054,322969,287540
1631023451807,55061,322919,287511
1631023451817,55076,322953,287503
1631023451827,55093,322922,287475
1631023451837,55114,322947,287449
1631023451847,55122,322930,287443
1631023451857,55143,322902,287392
1631023451867,55130,322869,287392
1631023451877,55147,322861,287353
1631023451887,55151,322876,287335
1631023451897,55152,322922,287289
1631023451907,55162,322839,287248
1631023451917,55176,322876,287229
1631023451927,55184,322862,287219
1631023451937,55180,322874,287176
1631023451947,55192,322874,287155
1631023451957,55181,322890,287162
1631023451967,55177,322914,287088
1631023451977,55169,322877,287070
1631023451987,55169,322895,287009
1631023451997,55171,322875,286994
1631023452007,55157,322852,286950
1631023452017,55155,322882,286919
1631023452027,55157,322855,286871
1631023452037,55161,322824,286838
1631023452047,55155,322785,286769
1631023452057,55163,322785,286755
1631023452067,55152,322853,286685
1631023452077,55155,322789,286697
1631023452087,55155,322795,286622
1631023452097,55145,322744,286602
1631023452107,55148,322766,286574
1631023452117,55140,322762,286564
1631023452127,55136,322763,286545
1631023452137,55137,322815,286529
1631023452147,55142,322778,286511
1631023452157,55126,322741,286459
1631023452167,55123,322751,286457
1631023452177,55118,322725,286422
1631023452187,55117,322735,286382
1631023452197,55086,322661,286332
1631023452207,55070,322606,286304
1631023452217,55033,322637,286257
1631023452227,55018,322530,286194
1631023452237,54980,322467,286153
1631023452247,54953,322440,286101
1631023452257,54929,322354,286004
1631023452267,54902,322306,285950
1631023452277,54874,322265,285909
1631023452287,54871,322257,285839
1631023452297,54858,322131,285832
1631023452307,54840,322110,285766
1631023452317,54821,322032,285740
1631023452327,54831,322043,285735
1631023452337,54818,321967,285676
1631023452347,54800,321962,285650
1631023452357,54784,321853,285647
1631023452367,54795,321859,285630
1631023452377,54792,321774,285591
1631023452387,54769,321794,285570
1631023452397,54776,321659,285516
1631023452407,54771,321614,285509
1631023452417,54770,321609,285476
1631023452427,54768,321591,285461
1631023452437,54772,321538,285451
1631023452447,54781,321547,285418
1631023452457,54777,321474,285429
1631023452467,54778,321440,285408
1631023452477,54779,321363,285340
1631023452487,54790,321351,285325
1631023452497,54782,321292,285304
1631023452507,54794,321266,285315
1631023452517,54812,321280,285256
1631023452527,54805,321203,285222
1631023452537,54815,321205,285235
1631023452547,54790,321142,285225
1631023452557,54805,321078,285217
1631023452567,54813,321087,285184
1631023452577,54813,321057,285176
1631023452587,54818,321050,285151
1631023452597,54815,321058,285130
1631023452607,54820,321003,285144
1631023452617,54827,320956,285088
1631023452627,54824,320937,285093
1631023452637,54835,320913,285103
1631023452647,54839,320931,285082
1631023452657,54838,320927,285094
1631023452667,54837,320909,285079
1631023452677,54839,320897,285092
1631023452687,54854,320958,285092
1631023452697,54845,320920,285091
1631023452707,54858,320917,285069
1631023452717,54854,320928,285069
1631023452727,54859,320959,285089
1631023452737,54852,320944,285095
1631023452747,54844,320928,285081
1631023452757,54844,320970,285033
1631023452767,54838,320936,285063
1631023452777,54831,320966,285079
1631023452787,54832,320992,285074
1631023452797,54832,320978,285060
1631023452807,54834,321052,285077
1631023452817,54849,321009,285106
1631023452827,54843,321049,285095
1631023452837,54858,321062,285094
1631023452847,54849,321091,285117
1631023452857,54858,321091,285113
1631023452867,54850,321090,285102
1631023452877,54859,321094,285130
1631023452887,54865,321104,285100
1631023452897,54875,321194,285096
1631023452907,54879,321181,285102
1631023452917,54893,321191,285111
1631023452927,54895,321186,285142
1631023452937,54894,321186,285127
1631023452947,54892,321191,285108
1631023452957,54892,321184,285118
1631023452967,54898,321152,285098
1631023452977,54873,321076,285121
1631023452987,54879,321078,285091
1631023452997,54852,321048,285083
1631023453007,54837,321010,285084
1631023453017,54813,320918,285074
1631023453027,54817,320920,285093
1631023453037,54786,320855,285091
1631023453047,54772,320815,285075
1631023453057,54765,320860,285078
1631023453067,54753,320776,285066
1631023453077,54737,320781,285050
1631023453087,54726,320787,285068
1631023453097,54698,320750,285083
1631023453107,54683,320713,285047
1631023453117,54671,320703,285028
1631023453127,54668,320693,285064
1631023453137,54652,320673,285087
1631023453147,54645,320630,285059
1631023453157,54626,320567,285059
1631023453167,54615,320545,285071
1631023453177,54609,320591,285067
1631023453187,54606,320527,285075
1631023453197,54595,320596,285116
1631023453207,54595,320601,285143
1631023453217,54608,320505,285172
1631023453227,54610,320552,285150
1631023453237,54605,320503,285126
1631023453247,54595,320525,285137
1631023453257,54592,320480,285112
1631023453267,54592,320512,285186
1631023453277,54596,320526,285219
1631023453287,54616,320502,285245
1631023453297,54622,320430,285301
1631023453307,54640,320506,285353
1631023453317,54662,320447,285367
1631023453327,54650,320484,285372
1631023453337,54663,320507,285430
1631023453347,54678,320457,285432
1631023453357,54679,320496,285459
1631023453367,54672,320444,285427
1631023453377,54673,320494,285482
1631023453387,54671,320459,285466
1631023453397,54687,320461,285475
1631023453407,54682,320493,285498
1631023453417,54672,320517,285515
1631023453427,54670,320505,285508
1631023453437,54672,320505,285530
1631023453447,54675,320520,285573
1631023453457,54680,320530,285533
1631023453467,54672,320521,285559
1631023453477,54673,320538,285574
1631023453487,54680,320523,285562
1631023453497,54663,320572,285567
1631023453507,54683,320535,285540
1631023453517,54676,320541,285519
1631023453527,54662,320592,285529
1631023453537,54655,320565,285534
1631023453547,54666,320564,285528
1631023453557,54660,320608,285556
1631023453567,54660,320603,285561
1631023453577,54661,320625,285558
1631023453587,54648,320641,285539
1631023453597,54649,320643,285550
1631023453607,54646,320683,285568
1631023453617,54645,320652,285570
1631023453627,54655,320655,285542
1631023453637,54656,320709,285539
1631023453647,54657,320723,285585
1631023453657,54658,320728,285568
1631023453667,54656,320758,285532
1631023453677,54640,320715,285520
1631023453687,54640,320657,285533
1631023453697,54607,320610,285506
1631023453707,54599,320547,285483
1631023453717,54558,320514,285471
1631023453727,54533,320456,285444
1631023453737,54511,320407,285396
1631023453747,54477,320419,285472
1631023453757,54447,320353,285399
1631023453767,54430,320347,285407
1631023453777,54400,320340,285397
1631023453787,54380,320323,285381
1631023453797,54368,320263,285334
1631023453807,54346,320250,285339
1631023453817,54322,320266,285322
1631023453827,54302,320249,285317
1631023453837,54264,320189,285312
1631023453847,54250,320163,285218
1631023453857,54224,320171,285239
1631023453867,54218,320141,285202
1631023453877,54191,320101,285203
1631023453887,54163,320108,285168
1631023453897,54147,320093,285138
1631023453907,54130,320105,285121
1631023453917,54099,320058,285134
1631023453927,54089,320098,285075
1631023453937,54078,320106,285066
1631023453947,54065,320058,285033
1631023453957,54054,320029,285030
1631023453967,54049,320086,285001
1631023453977,54023,320034,284974
1631023453987,54019,320041,284977
1631023453997,53997,320036,284962
1631023454007,53999,320049,284952
1631023454017,53977,320016,284946
1631023454027,53977,320005,284927
1631023454037,53973,319979,284962
1631023454047,53971,320023,284980
1631023454057,53964,320065,284948
1631023454067,53963,320069,284958
1631023454077,53954,320032,284953
1631023454087,53955,320083,284924
1631023454097,53947,320059,284960
1631023454107,53955,320099,284950
1631023454117,53952,320069,284962
1631023454127,53971,320109,284936
1631023454137,53974,320093,284953
1631023454147,53972,320066,284993
1631023454157,53970,320121,285003
1631023454167,53991,320105,285011
1631023454177,53990,320173,284981
1631023454187,54000,320158,285019
1631023454197,53994,320141,285035
1631023454207,54009,320196,285005
1631023454217,54011,320203,285015
1631023454227,54021,320230,285042
1631023454237,54028,320240,285043
1631023454247,54024,320272,285043
1631023454257,54044,320275,285049
1631023454267,54047,320291,285085
1631023454277,54047,320291,285087
1631023454287,54070,320338,285059
1631023454297,54075,320365,285069
1631023454307,54081,320354,285097
1631023454317,54080,320398,285116
1631023454327,54085,320434,285084
1631023454337,54084,320451,285091
1631023454347,54107,320427,285154
1631023454357,54116,320382,285067
1631023454367,54121,320472,285138
1631023454377,54134,320482,285101
1631023454387,54141,320496,285129
1631023454397,54149,320480,285086
1631023454407,54162,320473,285107
1631023454417,54154,320458,285098
1631023454427,54155,320444,285096
1631023454437,54162,320394,285111
1631023454447,54141,320358,285079
1631023454457,54121,320325,285068
1631023454467,54107,320258,285051
1631023454477,54089,320284,285028
1631023454487,54082,320210,284982
1631023454497,54077,320240,285002
1631023454507,54063,320179,285020
1631023454517,54057,320148,285049
1631023454527,54052,320170,285025
1631023454537,54046,320143,285027
1631023454547,54033,320127,285039
1631023454557,54021,320096,285021
1631023454567,54030,320123,285023
1631023454577,54011,320063,285024
1631023454587,54007,320064,284999
1631023454597,53992,320046,285029
1631023454607,53994,320022,284997
1631023454617,53998,320026,284996
1631023454627,53990,320016,285038
1631023454637,53975,319990,284993
1631023454647,53995,319994,285003
1631023454657,53996,319993,285043
1631023454667,54000,320030,285050
1631023454677,53997,320038,285026
1631023454687,54004,320023,285058
1631023454697,54012,320049,285054
1631023454707,54018,320021,285031
1631023454717,54013,320066,285039
1631023454727,54010,320057,285047
1631023454737,54014,320093,285024
1631023454747,54013,320072,285068
1631023454757,54015,320082,285064
1631023454767,54023,320085,285067
1631023454777,54028,320087,285046
1631023454787,54035,320088,285048
1631023454797,54042,320067,285082
1631023454807,54046,320077,285041
1631023454817,54044,320101,285110
1631023454827,54053,320171,285088
1631023454837,54065,320161,285078
1631023454847,54059,320145,285082
1631023454857,54063,320160,285065
1631023454867,54073,320176,285090
1631023454877,54074,320194,285104
1631023454887,54079,320194,285118
1631023454897,54089,320229,285087
1631023454907,54094,320226,285092
1631023454917,54109,320317,285144
1631023454927,54115,320230,285132
1631023454937,54124,320281,285146
1631023454947,54148,320315,285147
1631023454957,54147,320323,285147
1631023454967,54153,320310,285142
1631023454977,54156,320338,285121
1631023454987,54163,320343,285156
1631023454997,54182,320355,285172
1631023455007,54193,320392,285178
1631023455017,54198,320443,285165
1631023455027,54205,320420,285185
1631023455037,54217,320420,285179
1631023455047,54226,320439,285160
1631023455057,54246,320466,285200
1631023455067,54253,320500,285183
1631023455077,54263,320520,285188
1631023455087,54264,320531,285187
1631023455097,54286,320514,285190
1631023455107,54294,320557,285223
1631023455117,54297,320588,285218
1631023455127,54315,320628,285245
1631023455137,54318,320671,285229
1631023455147,54330,320632,285221
1631023455157,54332,320642,285237
1631023455167,54348,320706,285248
1631023455177,54362,320707,285248
1631023455187,54375,320740,285254
1631023455197,54387,320752,285256
1631023455207,54399,320767,285302
1631023455217,54417,320780,285281
1631023455227,54423,320816,285296
1631023455237,54441,320815,285300
1631023455247,54465,320863,285286
1631023455257,54477,320821,285296
1631023455267,54474,320802,285318
1631023455277,54489,320792,285326
1631023455287,54492,320789,285296
1631023455297,54493,320716,285276
1631023455307,54492,320769,285262
1631023455317,54482,320685,285272
1631023455327,54479,320711,285299
1631023455337,54470,320649,285259
1631023455347,54478,320608,285265
1631023455357,54465,320654,285269
1631023455367,54474,320634,285232
1631023455377,54471,320666,285271
1631023455387,54459,320698,285280
1631023455397,54468,320631,285263
1631023455407,54456,320621,285246
1631023455417,54463,320616,285242
1631023455427,54456,320620,285273
1631023455437,54468,320623,285267
1631023455447,54470,320579,285270
1631023455457,54463,320608,285289
1631023455467,54482,320566,285266
1631023455477,54467,320585,285235
1631023455487,54473,320572,285262
1631023455497,54475,320576,285266
1631023455507,54483,320606,285275
1631023455517,54489,320615,285268
1631023455527,54497,320602,285292
1631023455537,54493,320639,285289
1631023455547,54510,320627,285282
1631023455557,54519,320660,285283
1631023455567,54522,320596,285272
1631023455577,54522,320644,285270
1631023455587,54527,320682,285283
1631023455597,54540,320683,285297
1631023455607,54537,320625,285302
1631023455617,54536,320694,285318
1631023455627,54562,320631,285306
1631023455637,54582,320658,285295
1631023455647,54580,320674,285328
1631023455657,54588,320708,285305
1631023455667,54584,320722,285338
1631023455677,54593,320684,285323
1631023455687,54593,320721,285318
1631023455697,54609,320749,285317
1631023455707,54618,320733,285299
1631023455717,54623,320735,285327
1631023455727,54628,320715,285379
1631023455737,54639,320738,285336
1631023455747,54642,320811,285335
1631023455757,54657,320784,285332
1631023455767,54658,320793,285327
1631023455777,54671,320825,285323
1631023455787,54687,320819,285343
1631023455797,54690,320834,285344
1631023455807,54707,320835,285342
1631023455817,54711,320867,285344
1631023455827,54716,320854,285316
1631023455837,54729,320877,285347
1631023455847,54739,320930,285331
1631023455857,54735,320899,285332
1631023455867,54743,320938,285374
1631023455877,54764,320957,285307
1631023455887,54765,320974,285334
1631023455897,54770,320997,285380
1631023455907,54790,321008,285350
1631023455917,54799,320972,285343
1631023455927,54802,321011,285346
1631023455937,54807,321008,285361
1631023455947,54819,321076,285353
1631023455957,54823,321087,285381
1631023455967,54842,321044,285365
1631023455977,54849,321053,285345
1631023455987,54850,321114,285367
1631023455997,54872,321108,285373
1631023456007,54875,321125,285346
1631023456017,54892,321142,285419
1631023456027,54888,321173,285386
1631023456037,54906,321123,285409
1631023456047,54918,321205,285369
1631023456057,54926,321204,285379
1631023456067,54935,321256,285374
1631023456077,54958,321269,285398
1631023456087,54961,321293,285415
1631023456097,54962,321265,285376
1631023456107,54974,321219,285382
1631023456117,54989,321225,285393
1631023456127,54994,321277,285404
1631023456137,54993,321289,285371
1631023456147,54998,321277,285365
1631023456157,55016,321303,285379
1631023456167,55017,321324,285347
1631023456177,55014,321290,285356
1631023456187,55015,321240,285331
1631023456197,55016,321217,285283
1631023456207,55011,321184,285288
1631023456217,55004,321146,285322
1631023456227,55009,321105,285292
1631023456237,54997,321081,285282
1631023456247,55002,321095,285328
1631023456257,55012,321093,285295
1631023456267,54998,321089,285254
1631023456277,54983,321035,285251
1631023456287,54991,321042,285274
1631023456297,54976,321012,285254
1631023456307,54990,320973,285220
1631023456317,54992,320971,285279
1631023456327,54984,320975,285269
1631023456337,54978,320969,285279
1631023456347,54974,320950,285258
1631023456357,54980,320907,285228
1631023456367,54973,320964,285228
1631023456377,54973,320905,285236
1631023456387,54967,320907,285225
1631023456397,54971,320927,285229
1631023456407,54975,320924,285250
1631023456417,54990,320899,285214
1631023456427,54985,320960,285227
1631023456437,54978,320913,285201
1631023456447,54978,320915,285205
1631023456457,54987,320886,285202
1631023456467,54983,320948,285222
1631023456477,54989,320896,285181
1631023456487,54991,320911,285166
1631023456497,54982,320920,285156
1631023456507,54983,320862,285186
1631023456517,54974,320935,285174
1631023456527,54983,320917,285179
1631023456537,54986,320880,285135
1631023456547,54980,320872,285150
1631023456557,55004,320882,285130
1631023456567,54992,320899,285132
1631023456577,54993,320846,285125
1631023456587,54995,320879,285112
1631023456597,54993,320846,285112
1631023456607,55001,320922,285162
1631023456617,55005,320917,285153
1631023456627,55005,320884,285122
1631023456637,55012,320911,285143
1631023456647,55011,320879,285120
1631023456657,55019,320916,285134
1631023456667,55013,320914,285117
1631023456677,55017,320913,285114
1631023456687,55022,320908,285117
1631023456697,55019,320942,285117
1631023456707,55025,320957,285103
1631023456717,55032,320937,285135
1631023456727,55051,320987,285093
1631023456737,55042,321006,285123
1631023456747,55063,320973,285122
1631023456757,55054,320957,285089
1631023456767,55062,321017,285129
1631023456777,55060,320936,285125
1631023456787,55071,320991,285118
1631023456797,55080,321021,285089
1631023456807,55081,321006,285070
1631023456817,55087,321022,285149
1631023456827,55090,321052,285077
1631023456837,55095,321053,285104
1631023456847,55095,320999,285100
1631023456857,55110,321093,285096
1631023456867,55103,321077,285117
1631023456877,55112,321054,285078
1631023456887,55117,321106,285087
1631023456897,55111,321090,285107
1631023456907,55129,321090,285048
1631023456917,55119,321153,285084
1631023456927,55131,321114,285108
1631023456937,55141,321093,285043
1631023456947,55151,321123,285086
1631023456957,55160,321171,285083
1631023456967,55163,321164,285056
1631023456977,55169,321182,285080
1631023456987,55165,321210,285064
1631023456997,55167,321220,285080
1631023457007,55169,321219,285055
1631023457017,55173,321197,285059
1631023457027,55177,321167,285046
1631023457037,55173,321154,285039
1631023457047,55178,321118,285041
1631023457057,55157,321063,284979
1631023457067,55158,320996,284966
1631023457077,55139,320914,284981
1631023457087,55129,320924,284950
1631023457097,55107,320894,284947
1631023457107,55087,320843,284920
1631023457117,55086,320773,284940
1631023457127,55064,320821,284934
1631023457137,55042,320759,284923
1631023457147,55030,320719,284903
1631023457157,55007,320722,284883
1631023457167,54985,320666,284857
1631023457177,54971,320643,284847
1631023457187,54957,320618,284855
1631023457197,54939,320585,284827
1631023457207,54939,320528,284825
1631023457217,54910,320532,284768
1631023457227,54893,320523,284802
1631023457237,54887,320521,284784
1631023457247,54863,320436,284791
1631023457257,54849,320470,284787
1631023457267,54847,320447,284755
1631023457277,54845,320439,284740
1631023457287,54828,320393,284776
1631023457297,54827,320430,284753
1631023457307,54818,320394,284780
1631023457317,54805,320402,284782
1631023457327,54791,320410,284757
1631023457337,54787,320391,284775
1631023457347,54775,320341,284745
1631023457357,54779,320373,284748
1631023457367,54770,320335,284748
1631023457377,54750,320340,284756
1631023457387,54752,320332,284740
1631023457397,54755,320337,284751
1631023457407,54733,320324,284748
1631023457417,54733,320261,284784
1631023457427,54718,320275,284761
1631023457437,54715,320257,284751
1631023457447,54723,320282,284756
1631023457457,54704,320297,284764
1631023457467,54706,320233,284728
1631023457477,54695,320298,284756
1631023457487,54686,320245,284739
1631023457497,54687,320248,284723
1631023457507,54689,320272,284733
1631023457517,54688,320301,284744
1631023457527,54696,320285,284747
1631023457537,54685,320294,284727
1631023457547,54689,320273,284744
1631023457557,54685,320321,284746
1631023457567,54674,320294,284757
1631023457577,54680,320263,284753
1631023457587,54683,320329,284766
1631023457597,54682,320331,284771
1631023457607,54690,320335,284778
1631023457617,54679,320372,284765
1631023457627,54682,320323,284781
1631023457637,54680,320331,284801
1631023457647,54677,320321,284776
1631023457657,54673,320320,284785
1631023457667,54672,320368,284814
1631023457677,54673,320368,284777
1631023457687,54683,320369,284794
1631023457697,54688,320389,284803
1631023457707,54685,320416,284812
1631023457717,54687,320386,284788
1631023457727,54687,320431,284825
1631023457737,54681,320439,284836
1631023457747,54685,320436,284817
1631023457757,54680,320445,284826
1631023457767,54691,320484,284834
1631023457777,54695,320487,284847
1631023457787,54689,320476,284846
1631023457797,54688,320482,284838
1631023457807,54701,320536,284813
1631023457817,54697,320522,284795
1631023457827,54695,320597,284816
1631023457837,54698,320522,284795
1631023457847,54705,320596,284842
1631023457857,54712,320554,284815
1631023457867,54706,320584,284831
1631023457877,54706,320609,284803
1631023457887,54709,320574,284812
1631023457897,54711,320633,284813
1631023457907,54731,320616,284816
1631023457917,54741,320615,284828
1631023457927,54733,320653,284830
1631023457937,54738,320562,284761
1631023457947,54726,320549,284801
1631023457957,54708,320453,284775
1631023457967,54696,320417,284758
1631023457977,54674,320380,284720
1631023457987,54643,320279,284719
1631023457997,54613,320186,284675
1631023458007,54590,320169,284671
1631023458017,54554,320056,284673
1631023458027,54538,320063,284637
1631023458037,54501,319998,284654
1631023458047,54469,319988,284634
1631023458057,54471,319966,284654
1631023458067,54437,319932,284639
1631023458077,54412,319885,284638
1631023458087,54380,319877,284611
1631023458097,54364,319811,284598
1631023458107,54342,319823,284634
1631023458117,54318,319798,284592
1631023458127,54299,319761,284614
1631023458137,54270,319718,284571
1631023458147,54244,319707,284573
1631023458157,54223,319681,284546
1631023458167,54201,319679,284578
1631023458177,54191,319645,284586
1631023458187,54169,319708,284549
1631023458197,54161,319655,284578
1631023458207,54158,319659,284587
1631023458217,54142,319623,284574
1631023458227,54131,319653,284592
1631023458237,54131,319657,284589
1631023458247,54123,319638,284597
1631023458257,54106,319615,284586
1631023458267,54115,319612,284575
1631023458277,54080,319576,284628
1631023458287,54077,319580,284572
1631023458297,54065,319547,284577
1631023458307,54068,319584,284567
1631023458317,54056,319539,284533
1631023458327,54044,319575,284584
1631023458337,54051,319572,284562
1631023458347,54042,319594,284562
1631023458357,54012,319542,284580
1631023458367,54020,319572,284569
1631023458377,54009,319532,284588
1631023458387,53997,319548,284581
1631023458397,53998,319595,284574
1631023458407,53992,319571,284616
1631023458417,53997,319575,284601
1631023458427,53997,319564,284603
1631023458437,53990,319530,284596
1631023458447,53993,319618,284602
1631023458457,53990,319626,284616
1631023458467,53984,319630,284589
1631023458477,53989,319637,284604
1631023458487,53983,319645,284621
1631023458497,54002,319722,284603
1631023458507,53989,319684,284615
1631023458517,53999,319676,284645
1631023458527,53993,319657,284609
1631023458537,54005,319738,284638
1631023458547,54008,319690,284642
1631023458557,54005,319756,284603
1631023458567,54009,319770,284641
1631023458577,54012,319801,284648
1631023458587,54014,319812,284649
1631023458597,54025,319837,284640
1631023458607,54031,319841,284668
1631023458617,54038,319852,284671
1631023458627,54040,319820,284653
1631023458637,54044,319849,284658
1631023458647,54049,319904,284696
1631023458657,54047,319925,284654
1631023458667,54055,319893,284709
1631023458677,54070,319910,284684
1631023458687,54083,319979,284712
1631023458697,54089,319949,284735
1631023458707,54094,320004,284731
1631023458717,54086,319955,284726
1631023458727,54107,320034,284737
1631023458737,54117,320055,284752
1631023458747,54119,320054,284747
1631023458757,54126,320103,284753
1631023458767,54133,320094,284780
1631023458777,54132,320102,284790
1631023458787,54140,320128,284768
1631023458797,54146,320189,284779
1631023458807,54169,320189,284782
1631023458817,54184,320180,284781
1631023458827,54185,320225,284799
1631023458837,54196,320201,284796
1631023458847,54202,320181,284764
1631023458857,54192,320110,284762
1631023458867,54178,320111,284756
1631023458877,54156,320055,284736
1631023458887,54147,320022,284722
1631023458897,54118,319984,284705
1631023458907,54107,319885,284679
1631023458917,54083,319885,284705
1631023458927,54062,319854,284714
1631023458937,54059,319829,284711
1631023458947,54048,319801,284714
1631023458957,54034,319851,284698
1631023458967,54029,319794,284712
1631023458977,54036,319798,284693
1631023458987,54023,319773,284732
1631023458997,54018,319789,284710
1631023459007,54006,319757,284688
1631023459017,54007,319779,284718
1631023459027,53997,319714,284707
1631023459037,53987,319709,284690
1631023459047,53994,319740,284708
1631023459057,53993,319688,284717
1631023459067,53984,319698,284715
1631023459077,53976,319688,284710
1631023459087,53983,319739,284725
1631023459097,53979,319674,284733
1631023459107,53973,319676,284725
1631023459117,53986,319697,284754
1631023459127,53993,319725,284765
1631023459137,53979,319717,284757
1631023459147,53992,319722,284753
1631023459157,53998,319719,284717
1631023459167,53996,319754,284744
1631023459177,54016,319711,284740
1631023459187,53998,319722,284744
1631023459197,53999,319746,284775
1631023459207,54007,319759,284772
1631023459217,54009,319756,284756
1631023459227,54006,319772,284760
1631023459237,54016,319780,284782
1631023459247,54019,319747,284752
1631023459257,54013,319787,284794
1631023459267,54017,319791,284782
1631023459277,54028,319803,284787
1631023459287,54033,319803,284776
1631023459297,54052,319869,284789
1631023459307,54040,319842,284777
1631023459317,54063,319842,284827
1631023459327,54064,319894,284831
1631023459337,54058,319887,284815
1631023459347,54070,319879,284782
1631023459357,54070,319904,284831
1631023459367,54094,319898,284828
1631023459377,54102,319945,284805
1631023459387,54110,319960,284791
1631023459397,54118,319985,284824
1631023459407,54128,319952,284867
1631023459417,54131,320013,284854
1631023459427,54141,320034,284864
1631023459437,54150,320049,284853
1631023459447,54159,320016,284868
1631023459457,54164,320092,284883
1631023459467,54178,320045,284879
1631023459477,54199,320088,284856
1631023459487,54193,320149,284828
1631023459497,54209,320109,284881
1631023459507,54217,320139,284878
1631023459517,54221,320133,284863
1631023459527,54225,320188,284900
1631023459537,54251,320237,284889
1631023459547,54263,320242,284902
1631023459557,54274,320246,284933
1631023459567,54281,320260,284901
1631023459577,54289,320293,284909
1631023459587,54304,320327,284911
1631023459597,54302,320325,284936
1631023459607,54322,320316,284960
1631023459617,54343,320379,284959
1631023459627,54354,320387,284948
1631023459637,54360,320400,284969
1631023459647,54374,320456,284973
1631023459657,54371,320449,284943
1631023459667,54400,320442,284977
1631023459677,54409,320476,284977
1631023459687,54407,320479,284974
1631023459697,54432,320545,284966
1631023459707,54443,320534,284989
1631023459717,54449,320576,284964
1631023459727,54449,320537,284942
1631023459737,54452,320494,284929
1631023459747,54449,320461,284921
1631023459757,54444,320422,284926
1631023459767,54443,320391,284867
1631023459777,54441,320299,284857
1631023459787,54442,320340,284878
1631023459797,54438,320293,284869
1631023459807,54443,320232,284860
1631023459817,54441,320264,284879
1631023459827,54419,320259,284865
1631023459837,54425,320298,284852
1631023459847,54427,320235,284854
1631023459857,54449,320249,284852
1631023459867,54442,320275,284855
1631023459877,54438,320248,284892
1631023459887,54440,320268,284855
1631023459897,54447,320229,284875
1631023459907,54436,320233,284882
1631023459917,54444,320228,284870
1631023459927,54450,320208,284852
1631023459937,54445,320275,284870
1631023459947,54467,320222,284866
1631023459957,54469,320256,284868
1631023459967,54477,320271,284847
1631023459977,54471,320274,284874
1631023459987,54481,320289,284868
1631023459997,54482,320218,284871
1631023460007,54486,320284,284826
1631023460017,54498,320247,284858
1631023460027,54492,320300,284846
1631023460037,54510,320242,284867
1631023460047,54505,320288,284835
1631023460057,54515,320307,284854
1631023460067,54519,320291,284859
1631023460077,54522,320317,284880
1631023460087,54527,320292,284864
1631023460097,54533,320305,284826
1631023460107,54541,320308,284831
1631023460117,54558,320266,284859
1631023460127,54558,320359,284861
1631023460137,54562,320341,284841
1631023460147,54561,320301,284817
1631023460157,54572,320331,284845
1631023460167,54581,320363,284845
1631023460177,54594,320363,284847
1631023460187,54600,320352,284854
1631023460197,54603,320384,284841
1631023460207,54607,320355,284842
1631023460217,54626,320420,284847
1631023460227,54628,320434,284835
1631023460237,54639,320444,284825
1631023460247,54656,320471,284838
1631023460257,54648,320456,284820
1631023460267,54663,320462,284825
1631023460277,54672,320534,284825
1631023460287,54683,320474,284822
1631023460297,54697,320568,284812
1631023460307,54691,320524,284823
1631023460317,54703,320512,284839
1631023460327,54706,320517,284841
1631023460337,54733,320570,284813
1631023460347,54738,320628,284821
1631023460357,54738,320587,284812
1631023460367,54749,320594,284807
1631023460377,54763,320623,284848
1631023460387,54760,320687,284811
1631023460397,54769,320659,284849
1631023460407,54789,320681,284816
1631023460417,54795,320720,284820
1631023460427,54826,320710,284848
1631023460437,54818,320726,284843
1631023460447,54833,320724,284838
1631023460457,54836,320779,284864
1631023460467,54851,320794,284846
1631023460477,54863,320761,284852
1631023460487,54864,320798,284869
1631023460497,54879,320753,284835
1631023460507,54893,320799,284851
1631023460517,54906,320842,284823
1631023460527,54919,320874,284836
1631023460537,54922,320835,284850
1631023460547,54926,320845,284849
1631023460557,54943,320842,284806
1631023460567,54940,320758,284804
1631023460577,54929,320764,284801
1631023460587,54925,320667,284823
1631023460597,54931,320762,284792
1631023460607,54918,320654,284746
1631023460617,54927,320652,284748
1631023460627,54928,320610,284755
1631023460637,54919,320592,284766
1631023460647,54913,320547,284766
1631023460657,54916,320556,284766
1631023460667,54908,320556,284754
1631023460677,54906,320504,284746
1631023460687,54913,320549,284751
1631023460697,54909,320539,284735
1631023460707,54905,320486,284736
1631023460717,54897,320525,284744
1631023460727,54903,320515,284756
1631023460737,54903,320450,284719
1631023460747,54914,320428,284718
1631023460757,54903,320467,284720
1631023460767,54919,320463,284731
1631023460777,54911,320440,284745
1631023460787,54908,320503,284718
1631023460797,54911,320471,284737
1631023460807,54919,320427,284718
1631023460817,54919,320477,284702
1631023460827,54926,320486,284720
1631023460837,54934,320456,284744
1631023460847,54931,320463,284719
1631023460857,54947,320413,284747
1631023460867,54939,320477,284725
1631023460877,54943,320439,284738
1631023460887,54945,320469,284707
1631023460897,54953,320498,284724
1631023460907,54942,320457,284726
1631023460917,54957,320472,284737
1631023460927,54968,320508,284712
1631023460937,54972,320455,284704
1631023460947,54954,320461,284726
1631023460957,54972,320477,284709
1631023460967,54975,320461,284763
1631023460977,54978,320456,284711
1631023460987,54987,320514,284717
1631023460997,54981,320482,284748
1631023461007,55007,320473,284744
1631023461017,55009,320530,284721
1631023461027,55007,320521,284769
1631023461037,55016,320534,284726
1631023461047,55025,320513,284754
1631023461057,55032,320546,284713
1631023461067,55031,320568,284703
1631023461077,55038,320535,284715
1631023461087,55032,320571,284722
1631023461097,55042,320595,284750
1631023461107,55054,320601,284752
1631023461117,55069,320659,284733
1631023461127,55077,320586,284749
1631023461137,55077,320609,284728
1631023461147,55085,320625,284745
1631023461157,55094,320665,284742
1631023461167,55104,320654,284755
1631023461177,55104,320685,284720
1631023461187,55125,320687,284752
1631023461197,55119,320685,284761
1631023461207,55123,320708,284734
1631023461217,55134,320745,284763
1631023461227,55142,320730,284742
1631023461237,55150,320753,284774
1631023461247,55164,320751,284745
1631023461257,55174,320770,284780
1631023461267,55171,320783,284764
1631023461277,55195,320846,284808
1631023461287,55203,320779,284756
1631023461297,55201,320811,284783
1631023461307,55209,320850,284801
1631023461317,55218,320844,284793
1631023461327,55225,320868,284787
1631023461337,55228,320908,284798
1631023461347,55237,320885,284788
1631023461357,55239,320889,284784
1631023461367,55241,320900,284772
1631023461377,55249,320953,284792
1631023461387,55254,320962,284779
1631023461397,55253,320868,284709
1631023461407,55247,320890,284741
1631023461417,55241,320832,284746
1631023461427,55239,320809,284713
1631023461437,55222,320761,284664
1631023461447,55213,320638,284672
1631023461457,55191,320620,284661
1631023461467,55191,320609,284608
1631023461477,55177,320579,284639
1631023461487,55163,320576,284624
1631023461497,55150,320527,284634
1631023461507,55141,320486,284629
1631023461517,55130,320497,284621
1631023461527,55115,320418,284598
1631023461537,55104,320430,284617
1631023461547,55099,320420,284627
1631023461557,55093,320363,284621
1631023461567,55090,320396,284594
1631023461577,55071,320365,284596
1631023461587,55063,320296,284608
1631023461597,55067,320301,284612
1631023461607,55043,320244,284617
1631023461617,55038,320239,284619
1631023461627,55035,320241,284589
1631023461637,55024,320231,284580
1631023461647,55027,320217,284600
1631023461657,55015,320258,284615
1631023461667,55021,320280,284639
1631023461677,55008,320245,284651
1631023461687,55015,320237,284656
1631023461697,54994,320254,284670
1631023461707,54997,320222,284631
1631023461717,54993,320199,284659
1631023461727,54989,320177,284612
1631023461737,54994,320147,284610
1631023461747,54985,320210,284685
1631023461757,54982,320218,284678
1631023461767,54987,320173,284647
1631023461777,54976,320153,284678
1631023461787,54973,320189,284692
1631023461797,54972,320199,284658
1631023461807,54968,320235,284667
1631023461817,54974,320219,284676
1631023461827,54969,320183,284694
1631023461837,54966,320212,284689
1631023461847,54971,320184,284706
1631023461857,54967,320236,284713
1631023461867,54971,320231,284729
1631023461877,54968,320214,284686
1631023461887,54974,320189,284713
1631023461897,54984,320229,284680
1631023461907,54965,320286,284699
1631023461917,54979,320249,284696
1631023461927,54972,320269,284715
1631023461937,54990,320253,284720
1631023461947,54991,320300,284709
1631023461957,54991,320290,284719
1631023461967,54996,320286,284742
1631023461977,54995,320290,284754
1631023461987,55005,320308,284738
1631023461997,55003,320259,284745
1631023462007,55008,320312,284736
1631023462017,55010,320330,284762
1631023462027,55010,320295,284725
1631023462037,55008,320325,284740
1631023462047,55022,320368,284740
1631023462057,55012,320326,284748
1631023462067,55034,320387,284750
1631023462077,55023,320374,284747
1631023462087,55030,320375,284769
1631023462097,55024,320418,284777
1631023462107,55039,320418,284769
1631023462117,55044,320420,284755
1631023462127,55049,320395,284786
1631023462137,55052,320464,284767
1631023462147,55055,320487,284781
1631023462157,55062,320428,284783
1631023462167,55055,320445,284795
1631023462177,55051,320503,284771
1631023462187,55055,320495,284787
1631023462197,55071,320499,284814
1631023462207,55068,320537,284825
1631023462217,55084,320542,284843
1631023462227,55096,320533,284829
1631023462237,55085,320543,284809
1631023462247,55096,320597,284797
1631023462257,55105,320574,284844
1631023462267,55100,320556,284825
1631023462277,55097,320573,284806
1631023462287,55093,320484,284796
1631023462297,55077,320494,284773
1631023462307,55059,320391,284752
1631023462317,55036,320318,284747
1631023462327,55005,320268,284726
1631023462337,54977,320247,284703
1631023462347,54953,320176,284715
1631023462357,54929,320139,284709
1631023462367,54911,320123,284721
1631023462377,54889,320120,284712
1631023462387,54879,320083,284691
1631023462397,54858,320031,284685
1631023462407,54843,320039,284714
1631023462417,54835,320070,284745
1631023462427,54802,319949,284728
1631023462437,54799,319927,284712
1631023462447,54788,319946,284717
1631023462457,54767,319926,284750
1631023462467,54753,319915,284721
1631023462477,54723,319910,284745
1631023462487,54702,319860,284727
1631023462497,54702,319820,284692
1631023462507,54675,319814,284744
1631023462517,54666,319812,284760
1631023462527,54656,319857,284762
1631023462537,54647,319811,284761
1631023462547,54660,319782,284755
1631023462557,54640,319831,284789
1631023462567,54629,319793,284765
1631023462577,54629,319830,284747
1631023462587,54611,319808,284755
1631023462597,54609,319780,284784
1631023462607,54597,319780,284775
1631023462617,54592,319792,284770
1631023462627,54572,319789,284751
1631023462637,54566,319729,284763
1631023462647,54557,319778,284792
1631023462657,54552,319737,284766
1631023462667,54536,319778,284818
1631023462677,54524,319743,284808
1631023462687,54517,319753,284806
1631023462697,54507,319744,284782
1631023462707,54497,319789,284804
1631023462717,54524,319766,284821
1631023462727,54499,319745,284808
1631023462737,54506,319730,284806
1631023462747,54472,319781,284819
1631023462757,54488,319756,284835
1631023462767,54483,319811,284844
1631023462777,54486,319806,284850
1631023462787,54482,319789,284811
1631023462797,54482,319816,284835
1631023462807,54476,319858,284836
1631023462817,54478,319794,284857
1631023462827,54477,319838,284867
1631023462837,54474,319812,284861
1631023462847,54472,319830,284850
1631023462857,54474,319877,284851
1631023462867,54487,319887,284847
1631023462877,54475,319940,284879
1631023462887,54483,319878,284880
1631023462897,54484,319897,284859
1631023462907,54487,319912,284875
1631023462917,54478,319903,284895
1631023462927,54490,319897,284865
1631023462937,54485,319948,284895
1631023462947,54498,319955,284924
1631023462957,54492,319995,284895
1631023462967,54485,319962,284911
1631023462977,54483,319970,284928
1631023462987,54484,319968,284937
1631023462997,54493,319948,284908
1631023463007,54494,319999,284901
1631023463017,54495,319982,284932
1631023463027,54497,320030,284942
1631023463037,54498,320015,284955
1631023463047,54509,320034,284959
1631023463057,54519,320059,284972
1631023463067,54518,320090,284921
1631023463077,54502,320058,284959
1631023463087,54518,320139,284962
1631023463097,54519,320132,284963
1631023463107,54521,320117,284953
1631023463117,54518,320071,284949
1631023463127,54509,320023,284918
1631023463137,54484,320007,284875
1631023463147,54458,319915,284858
1631023463157,54433,319899,284845
1631023463167,54410,319848,284845
1631023463177,54392,319802,284841
1631023463187,54362,319787,284822
1631023463197,54353,319741,284848
1631023463207,54353,319743,284820
1631023463217,54326,319734,284806
1631023463227,54319,319646,284838
1631023463237,54300,319619,284826
1631023463247,54302,319645,284851
1631023463257,54290,319643,284826
1631023463267,54263,319631,284852
1631023463277,54264,319597,284817
1631023463287,54251,319601,284837
1631023463297,54242,319574,284825
1631023463307,54226,319577,284847
1631023463317,54205,319551,284814
1631023463327,54201,319536,284824
1631023463337,54196,319526,284827
1631023463347,54211,319557,284825
1631023463357,54198,319564,284878
1631023463367,54186,319538,284849
1631023463377,54207,319603,284855
1631023463387,54199,319569,284863
1631023463397,54187,319579,284871
1631023463407,54191,319568,284871
1631023463417,54183,319562,284884
1631023463427,54175,319556,284812
1631023463437,54182,319546,284853
1631023463447,54172,319536,284881
1631023463457,54178,319622,284843
1631023463467,54162,319558,284880
1631023463477,54161,319550,284880
1631023463487,54162,319570,284856
1631023463497,54160,319552,284859
1631023463507,54174,319574,284855
1631023463517,54176,319581,284883
1631023463527,54176,319647,284879
1631023463537,54172,319623,284888
1631023463547,54172,319623,284890
1631023463557,54182,319592,284905
1631023463567,54175,319569,284893
1631023463577,54191,319630,284906
1631023463587,54202,319647,284898
1631023463597,54197,319636,284903
1631023463607,54201,319658,284899
1631023463617,54219,319683,284894
1631023463627,54213,319666,284892
1631023463637,54211,319696,284916
1631023463647,54219,319704,284892
1631023463657,54220,319712,284909
1631023463667,54230,319723,284876
1631023463677,54231,319731,284891
1631023463687,54249,319696,284919
1631023463697,54253,319795,284939
1631023463707,54257,319803,284943
1631023463717,54267,319767,284920
1631023463727,54283,319811,284955
1631023463737,54281,319830,284916
1631023463747,54286,319871,284922
1631023463757,54297,319851,284947
1631023463767,54303,319898,284948
1631023463777,54310,319894,284961
1631023463787,54310,319920,284960
1631023463797,54327,319937,284949
1631023463807,54340,319915,284961
1631023463817,54338,319912,284959
1631023463827,54347,319935,284947
1631023463837,54360,319974,284935
1631023463847,54370,320003,284957
1631023463857,54383,319999,284992
1631023463867,54386,320006,284956
1631023463877,54398,320053,284962
1631023463887,54397,320051,284957
1631023463897,54413,320090,284966
1631023463907,54420,320097,284977
1631023463917,54422,320055,284986
1631023463927,54443,320142,284976
1631023463937,54449,320092,284990
1631023463947,54452,320113,284977
1631023463957,54449,320142,284933
1631023463967,54443,320043,284930
1631023463977,54448,320028,284923
1631023463987,54436,320014,284879
1631023463997,54422,319993,284908
1631023464007,54431,319899,284837
1631023464017,54416,319922,284866
1631023464027,54402,319866,284857
1631023464037,54403,319807,284837
1631023464047,54390,319842,284842
1631023464057,54377,319870,284818
1631023464067,54366,319829,284835
1631023464077,54369,319770,284832
1631023464087,54367,319791,284806
1631023464097,54353,319795,284835
1631023464107,54353,319782,284837
1631023464117,54350,319751,284794
1631023464127,54343,319710,284813
1631023464137,54337,319726,284782
1631023464147,54339,319749,284800
1631023464157,54332,319719,284822
1631023464167,54335,319705,284777
1631023464177,54321,319691,284762
1631023464187,54334,319676,284772
1631023464197,54335,319644,284778
1631023464207,54337,319675,284804
1631023464217,54336,319688,284792
1631023464227,54345,319667,284783
1631023464237,54346,319698,284781
1631023464247,54350,319710,284808
1631023464257,54355,319668,284806
1631023464267,54361,319690,284809
1631023464277,54364,319654,284809
1631023464287,54362,319666,284821
1631023464297,54370,319715,284787
1631023464307,54369,319712,284766
1631023464317,54380,319708,284779
1631023464327,54379,319689,284785
1631023464337,54390,319713,284802
1631023464347,54385,319713,284771
1631023464357,54384,319709,284779
1631023464367,54393,319630,284781
1631023464377,54391,319756,284759
1631023464387,54401,319719,284769
1631023464397,54405,319765,284798
1631023464407,54414,319764,284804
1631023464417,54425,319795,284787
1631023464427,54426,319815,284759
1631023464437,54429,319769,284785
1631023464447,54445,319792,284801
1631023464457,54451,319815,284781
1631023464467,54453,319829,284751
1631023464477,54468,319835,284761
1631023464487,54475,319857,284769
1631023464497,54486,319838,284786
1631023464507,54480,319869,284778
1631023464517,54513,319945,284775
1631023464527,54501,319870,284798
1631023464537,54510,319916,284782
1631023464547,54517,319934,284772
1631023464557,54535,319928,284794
1631023464567,54536,319933,284793
1631023464577,54544,319967,284788
1631023464587,54563,319972,284817
1631023464597,54561,320013,284784
1631023464607,54581,320066,284813
1631023464617,54590,320018,284801
1631023464627,54604,320032,284825
1631023464637,54609,320078,284835
1631023464647,54611,320058,284811
1631023464657,54622,320095,284831
1631023464667,54655,320139,284832
1631023464677,54653,320160,284809
1631023464687,54658,320158,284815
1631023464697,54661,320132,284801
1631023464707,54676,320174,284823
1631023464717,54693,320202,284796
1631023464727,54700,320208,284812
1631023464737,54706,320198,284810
1631023464747,54719,320212,284786
1631023464757,54728,320213,284811
1631023464767,54737,320241,284848
1631023464777,54740,320238,284800
1631023464787,54750,320309,284804
1631023464797,54761,320334,284779
1631023464807,54764,320317,284835
1631023464817,54776,320297,284804
1631023464827,54785,320317,284820
1631023464837,54799,320366,284777
1631023464847,54794,320342,284804
1631023464857,54804,320334,284738
1631023464867,54804,320271,284732
1631023464877,54812,320228,284733
1631023464887,54809,320268,284716
1631023464897,54795,320187,284691
1631023464907,54802,320173,284696
1631023464917,54791,320113,284673
1631023464927,54777,320104,284643
1631023464937,54782,320098,284639
1631023464947,54767,320066,284651
1631023464957,54773,320059,284673
1631023464967,54770,320052,284667
1631023464977,54767,320084,284686
1631023464987,54766,319993,284601
1631023464997,54785,320059,284629
1631023465007,54779,320018,284596
1631023465017,54767,320015,284615
1631023465027,54759,319959,284617
1631023465037,54766,319956,284622
1631023465047,54761,319928,284603
1631023465057,54764,319943,284571
1631023465067,54761,319941,284540
1631023465077,54770,319912,284579
1631023465087,54758,319937,284583
1631023465097,54754,319941,284617
1631023465107,54772,319921,284573
1631023465117,54774,319930,284588
1631023465127,54772,319916,284580
1631023465137,54776,319965,284609
1631023465147,54789,319958,284582
1631023465157,54783,319920,284550
1631023465167,54793,319963,284585
1631023465177,54790,319902,284549
1631023465187,54788,319910,284547
1631023465197,54801,319899,284538
1631023465207,54803,319941,284570
1631023465217,54807,319928,284543
1631023465227,54805,319949,284551
1631023465237,54815,319906,284548
1631023465247,54819,319904,284529
1631023465257,54819,319966,284563
1631023465267,54816,319974,284540
1631023465277,54825,319928,284563
1631023465287,54838,319985,284524
1631023465297,54836,319990,284524
1631023465307,54835,319947,284526
1631023465317,54849,319946,284511
1631023465327,54863,319921,284518
1631023465337,54843,320025,284524
1631023465347,54859,319975,284541
1631023465357,54872,320010,284497
1631023465367,54878,320034,284503
1631023465377,54887,320018,284519
1631023465387,54877,320023,284536
1631023465397,54878,320050,284491
1631023465407,54882,320068,284514
1631023465417,54897,320092,284505
1631023465427,54900,320069,284477
1631023465437,54911,320070,284490
1631023465447,54913,320138,284513
1631023465457,54928,320083,284461
1631023465467,54923,320088,284459
1631023465477,54930,320071,284506
1631023465487,54916,320130,284479
1631023465497,54938,320153,284492
1631023465507,54941,320131,284466
1631023465517,54946,320123,284445
1631023465527,54955,320133,284400
1631023465537,54945,320145,284461
1631023465547,54969,320147,284435
1631023465557,54963,320198,284435
1631023465567,54966,320200,284408
1631023465577,54962,320170,284427
1631023465587,54975,320234,284449
1631023465597,54978,320226,284420
1631023465607,54994,320207,284418
1631023465617,54998,320256,284436
1631023465627,55001,320228,284444
1631023465637,55009,320254,284405
1631023465647,55011,320249,284416
1631023465657,55037,320304,284409
1631023465667,55039,320287,284385
1631023465677,55047,320355,284403
1631023465687,55048,320356,284439
1631023465697,55058,320327,284421
1631023465707,55063,320371,284421
1631023465717,55066,320354,284422
1631023465727,55063,320370,284409
1631023465737,55079,320371,284430
1631023465747,55096,320395,284438
1631023465757,55096,320417,284407
1631023465767,55096,320412,284381
1631023465777,55105,320382,284354
1631023465787,55108,320331,284363
1631023465797,55107,320288,284336
1631023465807,55093,320280,284318
1631023465817,55081,320217,284268
1631023465827,55080,320199,284277
1631023465837,55066,320134,284243
1631023465847,55056,320073,284253
1631023465857,55050,320105,284242
1631023465867,55044,320017,284272
1631023465877,55037,320055,284236
1631023465887,55020,320039,284218
1631023465897,55015,319991,284242
1631023465907,55007,320000,284251
1631023465917,54996,319982,284214
1631023465927,54999,319988,284209
1631023465937,55007,319968,284200
1631023465947,54999,319903,284258
1631023465957,54993,319956,284182
1631023465967,54970,319932,284202
1631023465977,54958,319920,284210
1631023465987,54961,319844,284201
1631023465997,54953,319859,284189
1631023466007,54962,319907,284177
1631023466017,54948,319870,284162
1631023466027,54951,319865,284163
1631023466037,54951,319878,284230
1631023466047,54956,319864,284159
1631023466057,54948,319830,284158
1631023466067,54927,319872,284169
1631023466077,54932,319861,284141
1631023466087,54925,319837,284134
1631023466097,54937,319842,284130
1631023466107,54927,319833,284112
1631023466117,54914,319846,284149
1631023466127,54910,319797,284116
1631023466137,54921,319803,284136
1631023466147,54913,319810,284119
1631023466157,54906,319782,284105
1631023466167,54909,319760,284102
1631023466177,54899,319808,284095
1631023466187,54898,319773,284088
1631023466197,54901,319795,284085
1631023466207,54898,319745,284095
1631023466217,54895,319779,284099
1631023466227,54896,319794,284105
1631023466237,54891,319736,284074
1631023466247,54886,319830,284115
1631023466257,54903,319763,284083
1631023466267,54894,319801,284080
1631023466277,54894,319792,284095
1631023466287,54904,319826,284102
1631023466297,54901,319799,284076
1631023466307,54904,319858,284094
1631023466317,54896,319838,284095
1631023466327,54908,319846,284079
1631023466337,54909,319835,284091
1631023466347,54900,319812,284087
1631023466357,54916,319858,284093
1631023466367,54907,319843,284096
1631023466377,54918,319884,284096
1631023466387,54932,319910,284068
1631023466397,54935,319936,284084
1631023466407,54935,319873,284065
1631023466417,54930,319855,284081
1631023466427,54942,319903,284058
1631023466437,54945,319892,284084
1631023466447,54943,319904,284120
1631023466457,54947,319932,284081
1631023466467,54947,319929,284085
1631023466477,54936,319935,284069
1631023466487,54951,319959,284078
1631023466497,54964,319935,284075
1631023466507,54968,319969,284096
1631023466517,54971,320003,284084
1631023466527,54983,319986,284078
1631023466537,54974,320009,284098
1631023466547,54983,320021,284090
1631023466557,54989,319971,284125
1631023466567,54989,320037,284087
1631023466577,54994,320028,284085
1631023466587,55000,320059,284107
1631023466597,55014,320030,284099
1631023466607,55011,320053,284099
1631023466617,55015,320026,284092
1631023466627,55011,320064,284051
1631023466637,54995,319970,284051
1631023466647,54985,319952,284033
1631023466657,54969,319860,284006
1631023466667,54943,319810,283989
1631023466677,54922,319767,283948
1631023466687,54899,319736,283938
1631023466697,54875,319683,283941
1631023466707,54857,319614,283919
1631023466717,54834,319618,283935
1631023466727,54820,319584,283921
1631023466737,54791,319474,283913
1631023466747,54780,319549,283876
1631023466757,54746,319479,283881
1631023466767,54746,319464,283906
1631023466777,54719,319443,283848
1631023466787,54706,319440,283875
1631023466797,54684,319375,283847
1631023466807,54664,319328,283855
1631023466817,54649,319304,283832
1631023466827,54625,319281,283839
1631023466837,54628,319257,283844
1631023466847,54594,319235,283823
1631023466857,54579,319211,283813
1631023466867,54557,319251,283841
1631023466877,54552,319228,283824
1631023466887,54551,319236,283819
1631023466897,54540,319210,283855
1631023466907,54531,319188,283829
1631023466917,54519,319185,283879
1631023466927,54520,319177,283853
1631023466937,54502,319172,283814
1631023466947,54489,319174,283836
1631023466957,54475,319183,283835
1631023466967,54464,319161,283865
1631023466977,54457,319171,283839
1631023466987,54448,319145,283836
1631023466997,54436,319142,283826
1631023467007,54425,319135,283840
1631023467017,54424,319101,283842
1631023467027,54420,319090,283822
1631023467037,54399,319143,283834
1631023467047,54403,319143,283843
1631023467057,54395,319094,283850
1631023467067,54381,319125,283877
1631023467077,54390,319085,283825
1631023467087,54388,319164,283858
1631023467097,54387,319120,283875
1631023467107,54379,319149,283872
1631023467117,54372,319120,283855
1631023467127,54370,319103,283877
1631023467137,54369,319169,283877
1631023467147,54368,319160,283885
1631023467157,54370,319161,283883
1631023467167,54368,319203,283885
1631023467177,54369,319178,283890
1631023467187,54357,319157,283913
1631023467197,54358,319170,283907
1631023467207,54345,319221,283922
1631023467217,54355,319201,283902
1631023467227,54371,319231,283922
1631023467237,54351,319244,283909
1631023467247,54361,319240,283898
1631023467257,54374,319270,283909
1631023467267,54384,319296,283930
1631023467277,54379,319320,283929
1631023467287,54380,319265,283957
1631023467297,54377,319293,283951
1631023467307,54379,319363,283964
1631023467317,54381,319325,283978
1631023467327,54384,319355,283979
1631023467337,54389,319382,283974
1631023467347,54379,319380,283967
1631023467357,54380,319372,283991
1631023467367,54376,319403,283981
1631023467377,54393,319420,283957
1631023467387,54397,319404,284010
1631023467397,54387,319457,284020
1631023467407,54417,319428,283980
1631023467417,54410,319459,284014
1631023467427,54429,319470,284015
1631023467437,54422,319473,283987
1631023467447,54416,319510,284009
1631023467457,54426,319514,284043
1631023467467,54437,319526,284024
1631023467477,54430,319518,284017
1631023467487,54440,319522,283977
1631023467497,54437,319513,283996
1631023467507,54425,319447,283963
1631023467517,54404,319438,283957
1631023467527,54380,319373,283933
1631023467537,54354,319291,283887
1631023467547,54323,319256,283905
1631023467557,54283,319170,283882
1631023467567,54276,319137,283861
1631023467577,54236,319103,283859
1631023467587,54203,319036,283847
1631023467597,54194,319017,283861
1631023467607,54174,318964,283816
1631023467617,54165,318920,283842
1631023467627,54141,318986,283868
1631023467637,54117,318983,283848
1631023467647,54109,318953,283815
1631023467657,54093,318905,283846
1631023467667,54067,318906,283840
1631023467677,54051,318876,283826
1631023467687,54027,318849,283802
1631023467697,54020,318829,283809
1631023467707,54005,318864,283864
1631023467717,53990,318788,283834
1631023467727,53987,318805,283861
1631023467737,53978,318795,283868
1631023467747,53970,318762,283859
1631023467757,53972,318772,283886
1631023467767,53955,318794,283875
1631023467777,53954,318778,283880
1631023467787,53953,318800,283883
1631023467797,53948,318791,283905
1631023467807,53930,318781,283904
1631023467817,53927,318772,283892
1631023467827,53927,318752,283892
1631023467837,53920,318755,283897
1631023467847,53910,318789,283905
1631023467857,53903,318781,283916
1631023467867,53901,318789,283890
1631023467877,53894,318783,283908
1631023467887,53886,318806,283934
1631023467897,53903,318754,283939
1631023467907,53901,318814,283932
1631023467917,53893,318811,283949
1631023467927,53881,318843,283978
1631023467937,53887,318840,283974
1631023467947,53901,318850,283960
1631023467957,53888,318838,283947
1631023467967,53894,318834,283978
1631023467977,53903,318889,284011
1631023467987,53902,318856,283987
1631023467997,53890,318878,283959
1631023468007,53897,318928,284036
1631023468017,53904,318941,284022
1631023468027,53903,318924,284021
1631023468037,53920,318976,284019
1631023468047,53939,318951,284050
1631023468057,53922,318994,284058
1631023468067,53944,318960,284040
1631023468077,53930,319054,284045
1631023468087,53954,318999,284108
1631023468097,53972,319028,284068
1631023468107,53963,319036,284081
1631023468117,53972,319076,284103
1631023468127,53974,319076,284120
1631023468137,53985,319075,284116
1631023468147,53994,319111,284147
1631023468157,53987,319167,284122
1631023468167,53999,319133,284137
1631023468177,54007,319194,284142
1631023468187,54010,319238,284137
1631023468197,54020,319213,284147
1631023468207,54022,319265,284173
1631023468217,54036,319224,284188
1631023468227,54057,319295,284203
1631023468237,54062,319330,284136
1631023468247,54077,319348,284190
1631023468257,54071,319335,284205
1631023468267,54102,319358,284193
1631023468277,54092,319380,284179
1631023468287,54101,319381,284192
1631023468297,54111,319442,284195
1631023468307,54133,319439,284193
1631023468317,54129,319490,284226
1631023468327,54137,319462,284250
1631023468337,54149,319513,284222
1631023468347,54163,319539,284231
1631023468357,54164,319551,284264
1631023468367,54183,319587,284269
1631023468377,54207,319602,284252
1631023468387,54213,319568,284265
1631023468397,54217,319604,284278
1631023468407,54211,319610,284252
1631023468417,54218,319582,284221
1631023468427,54216,319529,284201
1631023468437,54212,319466,284179
1631023468447,54195,319433,284144
1631023468457,54175,319411,284161
1631023468467,54168,319383,284138
1631023468477,54147,319288,284097
1631023468487,54133,319317,284129
1631023468497,54132,319292,284093
1631023468507,54120,319256,284109
1631023468517,54115,319292,284130
1631023468527,54132,319248,284138
1631023468537,54113,319266,284128
1631023468547,54115,319205,284100
1631023468557,54109,319226,284114
1631023468567,54113,319247,284098
1631023468577,54109,319181,284130
1631023468587,54114,319176,284100
1631023468597,54118,319202,284110
1631023468607,54109,319181,284126
1631023468617,54104,319164,284148
1631023468627,54107,319200,284124
1631023468637,54112,319156,284154
1631023468647,54112,319168,284125
1631023468657,54107,319197,284157
1631023468667,54116,319223,284144
1631023468677,54120,319209,284144
1631023468687,54145,319248,284160
1631023468697,54127,319230,284189
1631023468707,54134,319221,284179
1631023468717,54157,319232,284178
1631023468727,54146,319242,284172
1631023468737,54166,319192,284180
1631023468747,54154,319204,284165
1631023468757,54170,319254,284143
1631023468767,54173,319252,284172
1631023468777,54177,319249,284157
1631023468787,54180,319233,284172
1631023468797,54182,319235,284177
1631023468807,54184,319301,284174
1631023468817,54185,319312,284176
1631023468827,54188,319285,284178
1631023468837,54212,319280,284177
1631023468847,54209,319321,284184
1631023468857,54227,319327,284192
1631023468867,54229,319393,284233
1631023468877,54235,319309,284192
1631023468887,54251,319359,284203
1631023468897,54249,319384,284206
1631023468907,54258,319427,284228
1631023468917,54269,319424,284249
1631023468927,54282,319425,284217
1631023468937,54291,319422,284218
1631023468947,54305,319434,284243
1631023468957,54308,319462,284269
1631023468967,54313,319488,284249
1631023468977,54319,319539,284229
1631023468987,54333,319492,284255
1631023468997,54341,319534,284279
1631023469007,54357,319576,284256
1631023469017,54364,319583,284275
1631023469027,54381,319558,284282
1631023469037,54389,319600,284278
1631023469047,54396,319593,284286
1631023469057,54399,319620,284305
1631023469067,54408,319656,284251
1631023469077,54431,319593,284269
1631023469087,54440,319652,284315
1631023469097,54449,319694,284271
1631023469107,54460,319697,284261
1631023469117,54460,319720,284250
1631023469127,54477,319724,284257
1631023469137,54470,319730,284301
1631023469147,54486,319758,284269
1631023469157,54492,319755,284261
1631023469167,54490,319782,284278
1631023469177,54523,319806,284254
1631023469187,54523,319788,284272
1631023469197,54530,319839,284288
1631023469207,54531,319835,284236
1631023469217,54558,319851,284225
1631023469227,54562,319867,284226
1631023469237,54587,319897,284235
1631023469247,54581,319919,284264
1631023469257,54593,319920,284204
1631023469267,54600,319887,284254
1631023469277,54616,319849,284207
1631023469287,54603,319861,284189
1631023469297,54608,319800,284168
1631023469307,54597,319767,284166
1631023469317,54595,319726,284131
1631023469327,54585,319697,284103
1631023469337,54585,319691,284100
1631023469347,54573,319637,284091
1631023469357,54581,319640,284101
1631023469367,54583,319671,284120
1631023469377,54587,319629,284059
1631023469387,54574,319650,284095
1631023469397,54587,319666,284101
1631023469407,54580,319637,284071
1631023469417,54591,319650,284060
1631023469427,54596,319616,284082
1631023469437,54591,319626,284038
1631023469447,54590,319622,284040
1631023469457,54594,319620,284066
1631023469467,54589,319607,284012
1631023469477,54582,319624,284045
1631023469487,54591,319551,284000
1631023469497,54604,319544,284036
1631023469507,54610,319583,284024
1631023469517,54604,319612,284014
1631023469527,54619,319602,284039
1631023469537,54627,319590,284005
1631023469547,54627,319591,284025
1631023469557,54628,319635,284003
1631023469567,54622,319613,284019
1631023469577,54638,319626,283993
1631023469587,54644,319595,283988
1631023469597,54642,319593,283970
1631023469607,54648,319645,283998
1631023469617,54645,319615,283992
1631023469627,54652,319601,284000
1631023469637,54662,319624,283983
1631023469647,54675,319604,283976
1631023469657,54674,319606,283938
1631023469667,54684,319648,283987
1631023469677,54690,319604,283982
1631023469687,54688,319635,283977
1631023469697,54700,319648,283972
1631023469707,54682,319719,283966
1631023469717,54700,319676,283924
1631023469727,54711,319686,283944
1631023469737,54710,319646,283943
1631023469747,54715,319688,283963
1631023469757,54720,319720,283938
1631023469767,54732,319740,283923
1631023469777,54732,319766,283934
1631023469787,54740,319743,283931
1631023469797,54754,319770,283935
1631023469807,54756,319812,283937
1631023469817,54754,319794,283919
1631023469827,54763,319826,283926
1631023469837,54774,319782,283951
1631023469847,54796,319784,283913
1631023469857,54788,319853,283914
1631023469867,54786,319851,283935
1631023469877,54799,319858,283925
1631023469887,54814,319887,283936
1631023469897,54822,319859,283935
1631023469907,54813,319873,283923
1631023469917,54842,319884,283941
1631023469927,54847,319915,283912
1631023469937,54843,319890,283939
1631023469947,54850,319979,283918
1631023469957,54857,319904,283918
1631023469967,54864,319950,283899
1631023469977,54872,319959,283925
1631023469987,54892,320002,283891
1631023469997,54889,320015,283902
1631023470007,54909,320065,283901
1631023470017,54908,320044,283908
1631023470027,54914,320084,283924
1631023470037,54927,320059,283874
1631023470047,54937,320083,283887
1631023470057,54939,320034,283915
1631023470067,54950,320107,283906
1631023470077,54950,320120,283901
1631023470087,54961,320083,283903
1631023470097,54967,320106,283879
1631023470107,54965,320041,283880
1631023470117,54960,320072,283849
1631023470127,54956,320069,283836
1631023470137,54954,320024,283804
1631023470147,54961,319944,283784
1631023470157,54939,319910,283755
1631023470167,54950,319870,283755
1631023470177,54918,319816,283738
1631023470187,54923,319858,283715
1631023470197,54906,319788,283709
1631023470207,54896,319773,283735
1631023470217,54903,319742,283731
1631023470227,54894,319787,283700
1631023470237,54889,319696,283673
1631023470247,54889,319722,283691
1631023470257,54880,319663,283653
1631023470267,54870,319665,283673
1631023470277,54867,319657,283620
1631023470287,54865,319636,283638
1631023470297,54859,319587,283661
1631023470307,54856,319589,283624
1631023470317,54846,319575,283600
1631023470327,54821,319570,283608
1631023470337,54833,319553,283600
1631023470347,54835,319528,283613
1631023470357,54821,319557,283648
1631023470367,54814,319519,283604
1631023470377,54816,319537,283606
1631023470387,54829,319575,283623
1631023470397,54827,319522,283598
1631023470407,54822,319533,283611
1631023470417,54818,319546,283637
1631023470427,54816,319530,283611
1631023470437,54821,319479,283602
1631023470447,54822,319497,283594
1631023470457,54814,319489,283606
1631023470467,54808,319553,283586
1631023470477,54808,319530,283599
1631023470487,54820,319510,283593
1631023470497,54821,319461,283583
1631023470507,54802,319518,283567
1631023470517,54811,319516,283598
1631023470527,54814,319539,283576
1631023470537,54829,319507,283595
1631023470547,54820,319507,283595
1631023470557,54826,319516,283588
1631023470567,54826,319533,283614
1631023470577,54823,319540,283591
1631023470587,54822,319557,283629
1631023470597,54838,319560,283605
1631023470607,54834,319557,283609
1631023470617,54835,319580,283577
1631023470627,54838,319592,283583
1631023470637,54836,319560,283603
1631023470647,54848,319591,283654
1631023470657,54858,319594,283626
1631023470667,54841,319648,283613
1631023470677,54861,319601,283612
1631023470687,54856,319650,283592
1631023470697,54858,319661,283623
1631023470707,54870,319657,283623
1631023470717,54874,319665,283631
1631023470727,54876,319635,283638
1631023470737,54884,319713,283627
1631023470747,54889,319678,283620
1631023470757,54885,319728,283632
1631023470767,54895,319728,283655
1631023470777,54888,319733,283654
1631023470787,54905,319754,283660
1631023470797,54922,319747,283634
1631023470807,54912,319808,283631
1631023470817,54926,319784,283645
1631023470827,54923,319833,283668
1631023470837,54929,319832,283643
1631023470847,54932,319780,283641
1631023470857,54933,319848,283651
1631023470867,54950,319815,283675
1631023470877,54946,319866,283653
1631023470887,54961,319876,283693
1631023470897,54966,319868,283697
1631023470907,54961,319912,283676
1631023470917,54966,319928,283682
1631023470927,54967,319917,283702
1631023470937,54970,319973,283697
1631023470947,54982,319950,283701
1631023470957,54983,320004,283708
1631023470967,54996,319938,283687
1631023470977,55007,319931,283691
1631023470987,55007,319942,283698
1631023470997,54997,319906,283643
1631023471007,54988,319892,283659
1631023471017,54969,319824,283632
1631023471027,54952,319748,283630
1631023471037,54936,319675,283591
1631023471047,54916,319656,283586
1631023471057,54899,319616,283583
1631023471067,54881,319589,283560
1631023471077,54856,319529,283571
1631023471087,54843,319552,283580
1631023471097,54833,319444,283552
1631023471107,54811,319497,283535
1631023471117,54799,319495,283547
1631023471127,54770,319441,283564
1631023471137,54770,319388,283534
1631023471147,54736,319346,283544
1631023471157,54728,319372,283486
1631023471167,54713,319327,283543
1631023471177,54694,319297,283547
1631023471187,54678,319243,283531
1631023471197,54671,319270,283530
1631023471207,54653,319239,283526
1631023471217,54630,319218,283520
1631023471227,54617,319151,283516
1631023471237,54601,319163,283533
1631023471247,54606,319180,283564
1631023471257,54592,319141,283549
1631023471267,54588,319212,283573
1631023471277,54586,319172,283544
1631023471287,54575,319140,283555
1631023471297,54567,319188,283574
1631023471307,54556,319164,283560
1631023471317,54557,319093,283572
1631023471327,54535,319122,283568
1631023471337,54528,319085,283595
1631023471347,54519,319088,283584
1631023471357,54518,319127,283565
1631023471367,54512,319110,283595
1631023471377,54498,319093,283599
1631023471387,54500,319118,283602
1631023471397,54485,319125,283635
1631023471407,54475,319087,283590
1631023471417,54475,319077,283625
1631023471427,54474,319061,283643
1631023471437,54487,319110,283647
1631023471447,54472,319111,283644
1631023471457,54473,319114,283643
1631023471467,54453,319136,283699
1631023471477,54467,319115,283710
1631023471487,54467,319108,283706
1631023471497,54453,319170,283708
1631023471507,54474,319174,283699
1631023471517,54465,319229,283733
1631023471527,54449,319167,283710
1631023471537,54465,319142,283742
1631023471547,54460,319153,283796
1631023471557,54466,319159,283746
1631023471567,54463,319202,283741
1631023471577,54467,319182,283770
1631023471587,54469,319213,283752
1631023471597,54468,319209,283790
1631023471607,54464,319227,283812
1631023471617,54473,319228,283757
1631023471627,54484,319290,283795
1631023471637,54483,319301,283817
1631023471647,54480,319293,283840
1631023471657,54471,319303,283847
1631023471667,54485,319307,283792
1631023471677,54480,319333,283822
1631023471687,54486,319328,283838
1631023471697,54487,319311,283819
1631023471707,54484,319353,283857
1631023471717,54484,319354,283866
1631023471727,54487,319346,283854
1631023471737,54477,319363,283859
1631023471747,54487,319410,283906
1631023471757,54486,319401,283867
1631023471767,54502,319353,283898
1631023471777,54502,319433,283896
1631023471787,54512,319414,283921
1631023471797,54509,319457,283902
1631023471807,54497,319491,283916
1631023471817,54518,319469,283920
1631023471827,54518,319492,283933
1631023471837,54520,319513,283896
1631023471847,54518,319500,283905
1631023471857,54514,319464,283904
1631023471867,54504,319439,283874
1631023471877,54486,319378,283884
1631023471887,54467,319290,283847
1631023471897,54441,319246,283798
1631023471907,54409,319206,283812
1631023471917,54380,319130,283841
1631023471927,54360,319157,283798
1631023471937,54334,319109,283830
1631023471947,54315,319055,283833
1631023471957,54301,319029,283859
1631023471967,54269,319076,283824
1631023471977,54248,319003,283828
1631023471987,54234,318996,283834
1631023471997,54229,318961,283852
1631023472007,54205,318994,283829
1631023472017,54196,318974,283858
1631023472027,54187,318951,283861
1631023472037,54176,318934,283850
1631023472047,54156,318928,283850
1631023472057,54131,318913,283849
1631023472067,54113,318905,283890
1631023472077,54098,318863,283855
1631023472087,54117,318910,283875
1631023472097,54091,318891,283887
1631023472107,54085,318927,283903
1631023472117,54086,318865,283905
1631023472127,54090,318885,283897
1631023472137,54069,318867,283903
1631023472147,54059,318883,283928
1631023472157,54056,318888,283910
1631023472167,54036,318918,283938
1631023472177,54050,318876,283917
1631023472187,54041,318862,283931
1631023472197,54030,318892,283937
1631023472207,54019,318854,283915
1631023472217,54023,318878,283980
1631023472227,54010,318832,283950
1631023472237,53996,318884,283927
1631023472247,53995,318884,283954
1631023472257,53990,318903,283982
1631023472267,53985,318930,283974
1631023472277,53965,318889,283960
1631023472287,53983,318878,283970
1631023472297,53976,318933,284002
1631023472307,53965,318919,283982
1631023472317,53960,318908,283996
1631023472327,53973,318942,283995
1631023472337,53974,318923,284004
1631023472347,53976,318969,283989
1631023472357,53974,318958,283997
1631023472367,53974,318995,284004
1631023472377,53972,318979,283999
1631023472387,53979,319011,284038
1631023472397,53978,319043,284016
1631023472407,54006,319020,284045
1631023472417,53995,319023,284028
1631023472427,54000,319078,284072
1631023472437,53999,319055,284048
1631023472447,53999,319038,284075
1631023472457,54010,319063,284032
1631023472467,54018,319078,284084
1631023472477,54007,319099,284047
1631023472487,54017,319099,284030
1631023472497,54017,319121,284052
1631023472507,54025,319193,284079
1631023472517,54032,319133,284048
1631023472527,54036,319171,284042
1631023472537,54034,319186,284084
1631023472547,54029,319216,284068
1631023472557,54036,319187,284055
1631023472567,54053,319233,284053
1631023472577,54058,319261,284056
1631023472587,54050,319278,284066
1631023472597,54076,319225,284070
1631023472607,54071,319272,284106
1631023472617,54087,319303,284076
1631023472627,54081,319306,284108
1631023472637,54091,319330,284086
1631023472647,54104,319330,284081
1631023472657,54115,319349,284129
1631023472667,54120,319335,284103
1631023472677,54122,319390,284084
1631023472687,54117,319335,284114
1631023472697,54129,319383,284058
1631023472707,54114,319357,284029
1631023472717,54104,319322,284028
1631023472727,54094,319274,284023
1631023472737,54068,319186,283988
1631023472747,54053,319173,283969
1631023472757,54038,319153,283959
1631023472767,54010,319086,283947
1631023472777,53992,319119,283912
1631023472787,53998,319088,283945
1631023472797,53981,319019,283962
1631023472807,53969,319074,283934
1631023472817,53966,319024,283913
1631023472827,53951,318985,283928
1631023472837,53954,318944,283949
1631023472847,53945,318927,283930
1631023472857,53931,318962,283948
1631023472867,53919,318975,283929
1631023472877,53909,318930,283943
1631023472887,53911,318912,283939
1631023472897,53899,318902,283916
1631023472907,53903,318916,283919
1631023472917,53907,318876,283900
1631023472927,53891,318828,283927
1631023472937,53891,318917,283943
1631023472947,53885,318910,283906
1631023472957,53895,318906,283910
1631023472967,53900,318934,283927
1631023472977,53904,318871,283924
1631023472987,53908,318887,283930
1631023472997,53900,318957,283915
1631023473007,53911,318944,283952
1631023473017,53915,318939,283934
1631023473027,53914,318956,283897
1631023473037,53913,318923,283932
1631023473047,53911,318904,283920
1631023473057,53926,318930,283914
1631023473067,53931,318967,283907
1631023473077,53922,318959,283928
1631023473087,53930,318930,283956
1631023473097,53943,318963,283924
1631023473107,53930,318966,283936
1631023473117,53927,318979,283951
1631023473127,53944,318941,283931
1631023473137,53949,318984,283924
1631023473147,53956,318988,283927
1631023473157,53954,318996,283944
1631023473167,53968,319044,283945
1631023473177,53975,319033,283950
1631023473187,53979,319063,283948
1631023473197,53987,319065,283940
1631023473207,53996,319096,283945
1631023473217,54013,319119,283954
1631023473227,54034,319126,283957
1631023473237,54043,319135,283952
1631023473247,54037,319145,283987
1631023473257,54036,319151,284006
1631023473267,54067,319168,283983
1631023473277,54071,319194,284014
1631023473287,54086,319218,283987
1631023473297,54091,319273,283984
1631023473307,54093,319239,283987
1631023473317,54110,319308,284021
1631023473327,54126,319243,284004
1631023473337,54136,319297,283995
1631023473347,54144,319287,283989
1631023473357,54153,319284,284003
1631023473367,54170,319335,284008
1631023473377,54171,319372,283996
1631023473387,54184,319351,284001
1631023473397,54197,319391,283986
1631023473407,54205,319415,283987
1631023473417,54208,319415,283990
1631023473427,54222,319413,284002
1631023473437,54225,319453,284019
1631023473447,54247,319461,284024
1631023473457,54259,319475,284001
1631023473467,54253,319482,284026
1631023473477,54272,319474,283991
1631023473487,54284,319546,283994
1631023473497,54289,319562,284013
1631023473507,54302,319576,284028
1631023473517,54320,319563,284029
1631023473527,54335,319601,284051
1631023473537,54357,319605,283995
1631023473547,54358,319589,284044
1631023473557,54361,319624,284031
1631023473567,54385,319632,284022
1631023473577,54379,319677,284012
1631023473587,54395,319694,284002
1631023473597,54414,319683,284006
1631023473607,54415,319721,284004
1631023473617,54425,319712,283998
1631023473627,54432,319640,283974
1631023473637,54440,319617,283956
1631023473647,54424,319628,283936
1631023473657,54424,319553,283907
1631023473667,54417,319526,283916
1631023473677,54410,319484,283911
1631023473687,54406,319476,283879
1631023473697,54412,319468,283890
1631023473707,54405,319487,283887
1631023473717,54409,319470,283890
1631023473727,54413,319421,283909
1631023473737,54397,319451,283882
1631023473747,54401,319396,283885
1631023473757,54402,319395,283914
1631023473767,54397,319425,283874
1631023473777,54400,319383,283845
1631023473787,54399,319380,283848
1631023473797,54403,319411,283864
1631023473807,54400,319371,283866
1631023473817,54398,319340,283837
1631023473827,54411,319374,283844
1631023473837,54395,319299,283839
1631023473847,54396,319347,283826
1631023473857,54404,319385,283792
1631023473867,54421,319364,283830
1631023473877,54415,319349,283823
1631023473887,54445,319381,283818
1631023473897,54435,319393,283825
1631023473907,54431,319361,283862
1631023473917,54438,319345,283841
1631023473927,54448,319413,283796
1631023473937,54448,319398,283851
1631023473947,54460,319401,283812
1631023473957,54463,319364,283810
1631023473967,54468,319401,283786
1631023473977,54476,319396,283789
1631023473987,54477,319439,283797
1631023473997,54479,319384,283812
1631023474007,54481,319391,283812
1631023474017,54490,319435,283797
1631023474027,54501,319413,283771
1631023474037,54506,319434,283766
1631023474047,54505,319397,283793
1631023474057,54528,319440,283810
1631023474067,54525,319418,283796
1631023474077,54527,319480,283800
1631023474087,54547,319489,283772
1631023474097,54544,319432,283793
1631023474107,54560,319471,283770
1631023474117,54568,319485,283772
1631023474127,54559,319522,283792
1631023474137,54569,319514,283778
1631023474147,54574,319525,283795
1631023474157,54580,319509,283794
1631023474167,54592,319517,283746
1631023474177,54593,319548,283778
1631023474187,54625,319578,283741
1631023474197,54611,319567,283769
1631023474207,54619,319627,283761
1631023474217,54636,319609,283769
1631023474227,54629,319567,283749
1631023474237,54650,319617,283778
1631023474247,54657,319653,283771
1631023474257,54668,319652,283748
1631023474267,54677,319709,283767
1631023474277,54687,319654,283790
1631023474287,54695,319686,283770
1631023474297,54711,319678,283767
1631023474307,54704,319723,283769
1631023474317,54713,319686,283784
1631023474327,54722,319744,283764
1631023474337,54728,319817,283791
1631023474347,54744,319796,283789
1631023474357,54759,319813,283778
1631023474367,54763,319801,283788
1631023474377,54773,319795,283768
1631023474387,54780,319809,283736
1631023474397,54786,319811,283763
1631023474407,54790,319854,283789
1631023474417,54806,319908,283746
1631023474427,54812,319859,283759
1631023474437,54821,319865,283771
1631023474447,54828,319917,283755
1631023474457,54841,319918,283769
1631023474467,54840,319921,283784
1631023474477,54852,319926,283784
1631023474487,54857,319992,283728
1631023474497,54870,319953,283793
1631023474507,54873,319973,283759
1631023474517,54885,320036,283767
1631023474527,54905,319966,283755
1631023474537,54899,319960,283744
1631023474547,54893,319909,283711
1631023474557,54884,319915,283699
1631023474567,54879,319849,283665
1631023474577,54894,319840,283648
1631023474587,54882,319813,283636
1631023474597,54879,319775,283641
1631023474607,54862,319749,283646
1631023474617,54873,319769,283631
1631023474627,54866,319703,283617
1631023474637,54856,319718,283631
1631023474647,54850,319692,283602
1631023474657,54854,319708,283608
1631023474667,54862,319705,283585
1631023474677,54840,319669,283573
1631023474687,54844,319666,283567
1631023474697,54847,319611,283560
1631023474707,54824,319625,283565
1631023474717,54836,319619,283593
1631023474727,54821,319603,283550
1631023474737,54815,319574,283561
1631023474747,54823,319578,283538
1631023474757,54809,319554,283540
1631023474767,54812,319533,283571
1631023474777,54807,319525,283546
1631023474787,54813,319591,283553
1631023474797,54804,319548,283518
1631023474807,54801,319547,283529
1631023474817,54796,319522,283531
1631023474827,54792,319553,283495
1631023474837,54808,319551,283477
1631023474847,54798,319540,283486
1631023474857,54796,319501,283477
1631023474867,54792,319510,283463
1631023474877,54790,319483,283491
1631023474887,54795,319497,283468
1631023474897,54780,319503,283454
1631023474907,54792,319517,283447
1631023474917,54793,319539,283437
1631023474927,54782,319488,283452
1631023474937,54780,319461,283450
1631023474947,54781,319437,283434
1631023474957,54773,319456,283428
1631023474967,54776,319466,283428
1631023474977,54768,319464,283419
1631023474987,54772,319480,283425
1631023474997,54769,319475,283439
1631023475007,54777,319492,283424
1631023475017,54789,319490,283455
1631023475027,54795,319456,283402
1631023475037,54786,319493,283403
1631023475047,54785,319517,283444
1631023475057,54792,319512,283399
1631023475067,54807,319519,283415
1631023475077,54795,319561,283399
1631023475087,54798,319512,283415
1631023475097,54803,319578,283411
1631023475107,54808,319552,283419
1631023475117,54809,319577,283392
1631023475127,54805,319559,283421
1631023475137,54810,319518,283399
1631023475147,54810,319598,283399
1631023475157,54808,319628,283415
1631023475167,54818,319600,283374
1631023475177,54833,319577,283393
1631023475187,54830,319598,283387
1631023475197,54834,319605,283418
1631023475207,54824,319624,283405
1631023475217,54832,319629,283398
1631023475227,54843,319625,283375
1631023475237,54845,319630,283366
1631023475247,54852,319661,283402
1631023475257,54855,319641,283370
1631023475267,54854,319670,283399
1631023475277,54857,319623,283373
1631023475287,54859,319679,283376
1631023475297,54857,319713,283386
1631023475307,54860,319723,283391
1631023475317,54864,319738,283391
1631023475327,54885,319715,283389
1631023475337,54886,319717,283398
1631023475347,54884,319735,283382
1631023475357,54885,319770,283382
1631023475367,54885,319800,283343
1631023475377,54891,319768,283370
1631023475387,54897,319795,283374
1631023475397,54885,319776,283328
1631023475407,54898,319711,283309
1631023475417,54877,319708,283309
1631023475427,54881,319640,283269
1631023475437,54866,319602,283265
1631023475447,54831,319547,283254
1631023475457,54821,319502,283192
1631023475467,54797,319443,283186
1631023475477,54774,319439,283214
1631023475487,54773,319347,283198
1631023475497,54760,319390,283159
1631023475507,54735,319333,283162
1631023475517,54723,319273,283180
1631023475527,54705,319280,283153
1631023475537,54683,319245,283124
1631023475547,54669,319179,283142
1631023475557,54657,319205,283129
1631023475567,54641,319214,283116
1631023475577,54630,319142,283103
1631023475587,54607,319135,283088
1631023475597,54591,319073,283095
1631023475607,54569,319033,283086
1631023475617,54547,319031,283092
1631023475627,54537,318997,283107
1631023475637,54535,318988,283096
1631023475647,54522,319002,283081
1631023475657,54519,318967,283072
1631023475667,54500,319010,283055
1631023475677,54498,318975,283070
1631023475687,54493,318951,283082
1631023475697,54484,318925,283052
1631023475707,54463,318897,283066
1631023475717,54469,318932,283029
1631023475727,54450,318914,283076
1631023475737,54449,318907,283042
1631023475747,54432,318884,283052
1631023475757,54419,318891,283066
1631023475767,54410,318843,283046
1631023475777,54416,318844,283046
1631023475787,54402,318862,283077
1631023475797,54390,318845,283054
1631023475807,54391,318864,283044
1631023475817,54377,318837,283037
1631023475827,54385,318851,283023
1631023475837,54375,318825,283013
1631023475847,54367,318801,283032
1631023475857,54360,318857,283071
1631023475867,54361,318845,283077
1631023475877,54359,318815,283061
1631023475887,54365,318824,283062
1631023475897,54362,318880,283077
1631023475907,54373,318878,283082
1631023475917,54352,318868,283100
1631023475927,54353,318863,283078
1631023475937,54352,318901,283097
1631023475947,54363,318849,283060
1631023475957,54359,318934,283076
1631023475967,54364,318902,283083
1631023475977,54368,318903,283120
1631023475987,54372,318921,283118
1631023475997,54358,318924,283094
1631023476007,54370,318923,283105
1631023476017,54373,318953,283082
1631023476027,54377,318947,283077
1631023476037,54378,318949,283142
1631023476047,54383,318961,283126
1631023476057,54378,318991,283133
1631023476067,54386,319014,283106
1631023476077,54388,319011,283113
1631023476087,54397,319016,283114
1631023476097,54394,319063,283134
1631023476107,54385,319081,283132
1631023476117,54392,319056,283132
1631023476127,54389,319072,283139
1631023476137,54395,319092,283186
1631023476147,54398,319106,283134
1631023476157,54406,319069,283155
1631023476167,54419,319104,283175
1631023476177,54418,319126,283164
1631023476187,54417,319172,283177
1631023476197,54422,319157,283169
1631023476207,54425,319151,283167
1631023476217,54428,319170,283207
1631023476227,54439,319193,283152
1631023476237,54434,319192,283235
1631023476247,54439,319209,283191
1631023476257,54439,319202,283196
1631023476267,54444,319242,283183
1631023476277,54453,319280,283235
1631023476287,54463,319222,283203
1631023476297,54453,319258,283195
1631023476307,54467,319238,283223
1631023476317,54467,319221,283183
1631023476327,54434,319218,283160
1631023476337,54447,319174,283161
1631023476347,54417,319108,283168
1631023476357,54385,319002,283098
1631023476367,54362,318966,283120
1631023476377,54336,318918,283076
1631023476387,54310,318845,283093
1631023476397,54274,318834,283057
1631023476407,54244,318777,283066
1631023476417,54218,318766,283038
1631023476427,54201,318726,283036
1631023476437,54170,318705,283054
1631023476447,54163,318683,283076
1631023476457,54143,318669,283079
1631023476467,54134,318598,283066
1631023476477,54110,318586,283051
1631023476487,54078,318586,283047
1631023476497,54065,318572,283047
1631023476507,54026,318519,283033
1631023476517,54017,318498,283048
1631023476527,53998,318470,283009
1631023476537,53980,318451,283022
1631023476547,53964,318389,283053
1631023476557,53948,318419,283049
1631023476567,53925,318438,283030
1631023476577,53919,318448,283042
1631023476587,53916,318433,283077
1631023476597,53907,318427,283108
1631023476607,53898,318450,283089
1631023476617,53875,318420,283105
1631023476627,53884,318402,283102
1631023476637,53889,318368,283098
1631023476647,53871,318355,283114
1631023476657,53861,318396,283122
1631023476667,53844,318383,283117
1631023476677,53830,318390,283138
1631023476687,53821,318380,283118
1631023476697,53825,318399,283107
1631023476707,53811,318398,283140
1631023476717,53817,318438,283164
1631023476727,53792,318428,283159
1631023476737,53798,318461,283151
1631023476747,53788,318378,283200
1631023476757,53784,318453,283209
1631023476767,53787,318435,283202
1631023476777,53783,318472,283192
1631023476787,53782,318468,283213
1631023476797,53796,318467,283221
1631023476807,53778,318519,283238
1631023476817,53771,318482,283239
1631023476827,53788,318528,283219
1631023476837,53788,318571,283243
1631023476847,53798,318510,283234
1631023476857,53794,318545,283251
1631023476867,53803,318572,283283
1631023476877,53809,318553,283272
1631023476887,53806,318541,283317
1631023476897,53806,318641,283302
1631023476907,53814,318649,283334
1631023476917,53823,318630,283325
1631023476927,53823,318655,283304
1631023476937,53820,318660,283301
1631023476947,53829,318686,283292
1631023476957,53831,318665,283339
1631023476967,53844,318694,283340
1631023476977,53849,318698,283344
1631023476987,53853,318721,283352
1631023476997,53845,318754,283355
1631023477007,53863,318760,283377
1631023477017,53871,318814,283373
1631023477027,53876,318807,283394
1631023477037,53872,318830,283380
1631023477047,53890,318831,283417
1631023477057,53885,318872,283426
1631023477067,53892,318876,283391
1631023477077,53911,318922,283431
1631023477087,53916,318934,283431
1631023477097,53916,318970,283463
1631023477107,53920,318993,283423
1631023477117,53929,318986,283408
1631023477127,53938,318969,283438
1631023477137,53943,318985,283445
1631023477147,53957,319070,283486
1631023477157,53963,319092,283457
1631023477167,53970,319095,283523
1631023477177,53974,319054,283486
1631023477187,53986,319152,283477
1631023477197,54006,319162,283481
1631023477207,54015,319175,283520
1631023477217,54027,319169,283515
1631023477227,54032,319166,283506
1631023477237,54043,319278,283527
1631023477247,54045,319258,283494
1631023477257,54045,319230,283499
1631023477267,54044,319192,283459
1631023477277,54032,319164,283457
1631023477287,54013,319057,283470
1631023477297,54003,319029,283413
1631023477307,53990,318955,283415
1631023477317,53963,318964,283366
1631023477327,53947,318987,283376
1631023477337,53949,318922,283380
1631023477347,53933,318900,283374
1631023477357,53922,318879,283398
1631023477367,53922,318867,283407
1631023477377,53916,318854,283377
1631023477387,53907,318875,283400
1631023477397,53909,318850,283407
1631023477407,53911,318883,283414
1631023477417,53902,318793,283426
1631023477427,53909,318830,283435
1631023477437,53896,318830,283414
1631023477447,53902,318847,283426
1631023477457,53899,318805,283434
1631023477467,53891,318835,283474
1631023477477,53886,318799,283443
1631023477487,53884,318857,283487
1631023477497,53891,318809,283459
1631023477507,53894,318818,283445
1631023477517,53903,318881,283447
1631023477527,53905,318840,283463
1631023477537,53914,318847,283464
1631023477547,53919,318872,283500
1631023477557,53923,318840,283471
1631023477567,53919,318871,283478
1631023477577,53927,318900,283503
1631023477587,53934,318898,283501
1631023477597,53936,318961,283507
1631023477607,53935,318890,283513
1631023477617,53941,318891,283516
1631023477627,53938,318947,283533
1631023477637,53944,318941,283572
1631023477647,53943,318945,283517
1631023477657,53955,318922,283541
1631023477667,53967,318966,283526
1631023477677,53965,318953,283542
1631023477687,53988,318944,283557
1631023477697,53984,318975,283547
1631023477707,53992,318992,283534
1631023477717,53994,319010,283554
1631023477727,54010,319052,283538
1631023477737,54007,319048,283563
1631023477747,54023,319059,283569
1631023477757,54020,319061,283578
1631023477767,54049,319084,283565
1631023477777,54045,319132,283568
1631023477787,54061,319129,283582
1631023477797,54072,319152,283575
1631023477807,54079,319137,283565
1631023477817,54087,319179,283590
1631023477827,54094,319191,283581
1631023477837,54108,319183,283595
1631023477847,54115,319245,283594
1631023477857,54133,319251,283615
1631023477867,54139,319238,283615
1631023477877,54141,319284,283624
1631023477887,54152,319263,283613
1631023477897,54156,319309,283629
1631023477907,54178,319342,283637
1631023477917,54198,319342,283626
1631023477927,54206,319320,283614
1631023477937,54199,319340,283604
1631023477947,54219,319364,283616
1631023477957,54237,319414,283620
1631023477967,54241,319418,283633
1631023477977,54248,319474,283649
1631023477987,54270,319520,283637
1631023477997,54283,319473,283631
1631023478007,54296,319470,283642
1631023478017,54310,319491,283665
1631023478027,54325,319516,283660
1631023478037,54340,319553,283645
1631023478047,54343,319529,283659
1631023478057,54357,319615,283641
1631023478067,54362,319630,283676
1631023478077,54378,319617,283717
1631023478087,54402,319652,283655
1631023478097,54406,319621,283664
1631023478107,54407,319673,283713
1631023478117,54426,319663,283721
1631023478127,54427,319735,283683
1631023478137,54436,319717,283643
1631023478147,54453,319722,283634
1631023478157,54453,319643,283614
1631023478167,54456,319627,283621
1631023478177,54455,319582,283572
1631023478187,54435,319538,283593
1631023478197,54433,319562,283577
1631023478207,54438,319546,283574
1631023478217,54442,319526,283559
1631023478227,54439,319529,283587
1631023478237,54451,319507,283581
1631023478247,54441,319488,283582
1631023478257,54446,319502,283583
1631023478267,54451,319517,283562
1631023478277,54448,319543,283550
1631023478287,54458,319488,283590
1631023478297,54467,319467,283561
1631023478307,54473,319504,283556
1631023478317,54470,319511,283561
1631023478327,54472,319509,283565
1631023478337,54483,319483,283537
1631023478347,54488,319527,283571
1631023478357,54493,319534,283547
1631023478367,54493,319539,283566
1631023478377,54498,319500,283581
1631023478387,54510,319496,283572
1631023478397,54523,319529,283594
1631023478407,54527,319583,283601
1631023478417,54517,319525,283544
1631023478427,54525,319574,283574
1631023478437,54534,319559,283555
1631023478447,54541,319565,283558
1631023478457,54554,319562,283526
1631023478467,54560,319530,283544
1631023478477,54570,319557,283549
1631023478487,54572,319610,283545
1631023478497,54566,319593,283523
1631023478507,54587,319607,283519
1631023478517,54581,319558,283560
1631023478527,54594,319580,283526
1631023478537,54592,319600,283543
1631023478547,54595,319590,283560
1631023478557,54619,319655,283525
1631023478567,54610,319644,283504
1631023478577,54618,319608,283542
1631023478587,54631,319624,283525
1631023478597,54650,319635,283528
1631023478607,54650,319672,283512
1631023478617,54654,319665,283498
1631023478627,54660,319712,283497
1631023478637,54672,319697,283501
1631023478647,54676,319695,283529
1631023478657,54687,319767,283506
1631023478667,54697,319749,283525
1631023478677,54695,319728,283502
1631023478687,54705,319811,283507
1631023478697,54715,319730,283553
1631023478707,54731,319809,283510
1631023478717,54729,319805,283513
1631023478727,54744,319823,283516
1631023478737,54743,319824,283513
1631023478747,54775,319828,283553
1631023478757,54767,319868,283514
1631023478767,54775,319903,283513
1631023478777,54792,319879,283540
1631023478787,54790,319890,283522
1631023478797,54814,319885,283506
1631023478807,54806,319896,283516
1631023478817,54825,319964,283517
1631023478827,54836,319951,283526
1631023478837,54840,320025,283522
1631023478847,54849,319958,283502
1631023478857,54844,319986,283510
1631023478867,54859,320022,283486
1631023478877,54871,320019,283524
1631023478887,54876,320082,283502
1631023478897,54897,320055,283514
1631023478907,54906,320092,283516
1631023478917,54897,320091,283533
1631023478927,54917,320073,283504
1631023478937,54920,320096,283500
1631023478947,54928,320115,283514
1631023478957,54940,320112,283499
1631023478967,54950,320133,283512
1631023478977,54964,320179,283481
1631023478987,54968,320109,283459
1631023478997,54968,320115,283467
1631023479007,54973,320115,283468
1631023479017,54973,320041,283426
1631023479027,54975,320010,283403
1631023479037,54961,320000,283401
1631023479047,54954,319920,283384
1631023479057,54957,319919,283372
1631023479067,54962,319902,283351
1631023479077,54946,319889,283350
1631023479087,54951,319865,283348
1631023479097,54927,319887,283353
1631023479107,54931,319853,283330
1631023479117,54945,319838,283323
1631023479127,54930,319808,283317
1631023479137,54939,319806,283320
1631023479147,54922,319785,283279
1631023479157,54927,319780,283314
1631023479167,54919,319759,283279
1631023479177,54914,319756,283265
1631023479187,54906,319723,283267
1631023479197,54907,319787,283281
1631023479207,54903,319725,283251
1631023479217,54904,319712,283259
1631023479227,54904,319687,283276
1631023479237,54908,319707,283256
1631023479247,54901,319677,283253
1631023479257,54897,319743,283245
1631023479267,54907,319722,283239
1631023479277,54907,319704,283208
1631023479287,54896,319706,283234
1631023479297,54904,319710,283245
1631023479307,54912,319705,283220
1631023479317,54897,319683,283218
1631023479327,54905,319651,283240
1631023479337,54895,319655,283183
1631023479347,54894,319650,283202
1631023479357,54900,319705,283196
1631023479367,54901,319681,283237
1631023479377,54913,319714,283213
1631023479387,54899,319700,283188
1631023479397,54897,319687,283200
1631023479407,54915,319719,283201
1631023479417,54908,319699,283215
1631023479427,54900,319711,283196
1631023479437,54910,319701,283186
1631023479447,54921,319704,283201
1631023479457,54915,319720,283200
1631023479467,54924,319731,283211
1631023479477,54923,319745,283185
1631023479487,54925,319738,283196
1631023479497,54923,319783,283175
1631023479507,54923,319733,283169
1631023479517,54938,319747,283152
1631023479527,54947,319765,283158
1631023479537,54957,319765,283185
1631023479547,54947,319792,283216
1631023479557,54949,319768,283185
1631023479567,54961,319794,283217
1631023479577,54968,319783,283161
1631023479587,54961,319829,283160
1631023479597,54962,319828,283163
1631023479607,54973,319841,283193
1631023479617,54985,319816,283176
1631023479627,54989,319844,283165
1631023479637,54979,319834,283174
1631023479647,54992,319864,283162
1631023479657,54988,319873,283174
1631023479667,54997,319888,283204
1631023479677,55001,319926,283200
1631023479687,55007,319901,283151
1631023479697,55003,319927,283172
1631023479707,55008,319928,283181
1631023479717,55028,319929,283186
1631023479727,55039,319941,283196
1631023479737,55030,319978,283187
1631023479747,55037,319991,283179
1631023479757,55032,319951,283180
1631023479767,55045,320008,283204
1631023479777,55060,319954,283208
1631023479787,55055,319982,283181
1631023479797,55058,320043,283198
1631023479807,55064,320010,283168
1631023479817,55079,320014,283190
1631023479827,55073,319999,283199
1631023479837,55080,320051,283190
1631023479847,55084,320065,283227
1631023479857,55083,320046,283204
1631023479867,55098,320088,283177
1631023479877,55104,320048,283170
1631023479887,55088,320010,283166
1631023479897,55097,320010,283151
1631023479907,55077,319971,283123
1631023479917,55063,319894,283132
1631023479927,55060,319873,283095
1631023479937,55040,319811,283060
1631023479947,55012,319817,283060
1631023479957,54994,319716,283014
1631023479967,54986,319695,283034
1631023479977,54957,319681,283025
1631023479987,54936,319623,283033
1631023479997,54917,319591,283047
1631023480007,54913,319572,283005
1631023480017,54909,319568,283001
1631023480027,54883,319532,282981
1631023480037,54855,319513,282985
1631023480047,54854,319478,282952
1631023480057,54840,319403,282986
1631023480067,54816,319420,282951
1631023480077,54802,319419,282961
1631023480087,54786,319357,282964
1631023480097,54776,319342,282940
1631023480107,54757,319312,282949
1631023480117,54745,319317,282956
1631023480127,54734,319252,282925
1631023480137,54725,319300,282982
1631023480147,54712,319324,282973
1631023480157,54714,319271,282956
1631023480167,54704,319262,282964
1631023480177,54704,319263,282951
1631023480187,54671,319246,283002
1631023480197,54695,319236,282986
1631023480207,54672,319228,282953
1631023480217,54673,319235,282940
1631023480227,54655,319183,282934
1631023480237,54639,319187,282974
1631023480247,54644,319156,283003
1631023480257,54630,319193,282992
1631023480267,54636,319194,282982
1631023480277,54619,319157,282971
1631023480287,54617,319188,282999
1631023480297,54611,319158,283009
1631023480307,54607,319187,282976
1631023480317,54596,319174,282991
1631023480327,54594,319164,283011
1631023480337,54597,319181,283024
1631023480347,54600,319155,283009
1631023480357,54585,319185,283014
1631023480367,54583,319210,283009
1631023480377,54583,319156,283032
1631023480387,54583,319189,283028
1631023480397,54573,319196,283063
1631023480407,54574,319178,283056
1631023480417,54588,319200,283049
1631023480427,54582,319207,283059
1631023480437,54597,319194,283061
1631023480447,54589,319243,283069
1631023480457,54576,319221,283061
1631023480467,54585,319201,283058
1631023480477,54575,319260,283080
1631023480487,54585,319272,283083
1631023480497,54587,319275,283094
1631023480507,54598,319302,283087
1631023480517,54595,319288,283093
1631023480527,54598,319305,283103
1631023480537,54586,319294,283081
1631023480547,54589,319302,283120
1631023480557,54598,319321,283114
1631023480567,54599,319317,283116
1631023480577,54605,319280,283111
1631023480587,54607,319323,283143
1631023480597,54615,319342,283133
1631023480607,54614,319354,283149
1631023480617,54621,319351,283150
1631023480627,54611,319386,283152
1631023480637,54611,319367,283164
1631023480647,54618,319359,283151
1631023480657,54637,319360,283177
1631023480667,54633,319425,283172
1631023480677,54619,319457,283168
1631023480687,54638,319434,283146
1631023480697,54629,319444,283195
1631023480707,54638,319425,283188
1631023480717,54638,319486,283187
1631023480727,54645,319490,283194
1631023480737,54653,319460,283211
1631023480747,54663,319520,283208
1631023480757,54667,319513,283192
1631023480767,54670,319516,283204
1631023480777,54679,319536,283172
1631023480787,54674,319540,283216
1631023480797,54667,319532,283232
1631023480807,54669,319514,283194
1631023480817,54667,319501,283169
1631023480827,54664,319405,283172
1631023480837,54629,319331,283132
1631023480847,54607,319287,283132
1631023480857,54575,319212,283109
1631023480867,54545,319164,283081
1631023480877,54508,319111,283109
1631023480887,54475,319087,283113
1631023480897,54458,319075,283065
1631023480907,54443,319017,283060
1631023480917,54412,318952,283074
1631023480927,54393,318976,283055
1631023480937,54373,318917,283066
1631023480947,54345,318899,283070
1631023480957,54328,318893,283072
1631023480967,54306,318903,283073
1631023480977,54290,318871,283091
1631023480987,54272,318839,283072
1631023480997,54263,318807,283099
1631023481007,54239,318815,283074
1631023481017,54216,318754,283058
1631023481027,54192,318730,283113
1631023481037,54166,318690,283078
1631023481047,54147,318709,283084
1631023481057,54152,318688,283085
1631023481067,54143,318653,283091
1631023481077,54139,318705,283118
1631023481087,54124,318732,283107
1631023481097,54115,318713,283151
1631023481107,54096,318712,283155
1631023481117,54081,318700,283122
1631023481127,54070,318695,283159
1631023481137,54066,318680,283128
1631023481147,54077,318709,283097
1631023481157,54054,318647,283110
1631023481167,54033,318663,283137
1631023481177,54045,318650,283179
1631023481187,54033,318613,283151
1631023481197,54014,318623,283160
1631023481207,54003,318625,283156
1631023481217,53992,318657,283155
1631023481227,53997,318620,283173
1631023481237,53981,318606,283178
1631023481247,53980,318650,283160
1631023481257,53982,318612,283177
1631023481267,53981,318655,283192
1631023481277,53975,318640,283197
1631023481287,53965,318670,283208
1631023481297,53964,318687,283198
1631023481307,53979,318690,283211
1631023481317,53952,318688,283180
1631023481327,53979,318656,283225
1631023481337,53968,318708,283220
1631023481347,53963,318746,283228
1631023481357,53968,318727,283236
1631023481367,53964,318736,283265
1631023481377,53966,318757,283251
1631023481387,53965,318748,283263
1631023481397,53957,318777,283249
1631023481407,53972,318789,283226
1631023481417,53975,318751,283253
1631023481427,53977,318793,283262
1631023481437,53983,318770,283281
1631023481447,53976,318800,283287
1631023481457,53974,318812,283275
1631023481467,53982,318817,283274
1631023481477,53989,318792,283272
1631023481487,53992,318887,283291
1631023481497,53992,318861,283278
1631023481507,54003,318887,283305
1631023481517,54000,318852,283301
1631023481527,54003,318936,283300
1631023481537,54007,318908,283331
1631023481547,54009,318956,283315
1631023481557,54021,318962,283293
1631023481567,54023,318981,283329
1631023481577,54018,318977,283343
1631023481587,54037,318974,283330
1631023481597,54030,319012,283340
1631023481607,54037,319066,283319
1631023481617,54041,319053,283330
1631023481627,54047,319034,283346
1631023481637,54055,319075,283356
1631023481647,54073,319108,283364
1631023481657,54071,319134,283376
1631023481667,54080,319146,283360
1631023481677,54083,319148,283334
1631023481687,54083,319102,283348
1631023481697,54061,319099,283323
1631023481707,54067,319042,283317
1631023481717,54050,319009,283265
1631023481727,54034,318889,283267
1631023481737,54007,318896,283271
1631023481747,53980,318861,283241
1631023481757,53973,318823,283244
1631023481767,53947,318765,283244
1631023481777,53930,318791,283238
1631023481787,53929,318765,283234
1631023481797,53905,318703,283225
1631023481807,53897,318710,283232
1631023481817,53880,318719,283236
1631023481827,53886,318702,283248
1631023481837,53885,318725,283251
1631023481847,53880,318728,283262
1631023481857,53864,318660,283242
1631023481867,53863,318712,283247
1631023481877,53850,318665,283252
1631023481887,53854,318689,283227
1631023481897,53850,318651,283258
1631023481907,53843,318625,283243
1631023481917,53839,318648,283254
1631023481927,53838,318691,283238
1631023481937,53841,318715,283259
1631023481947,53845,318687,283292
1631023481957,53831,318716,283280
1631023481967,53854,318692,283288
1631023481977,53859,318692,283275
1631023481987,53855,318645,283269
1631023481997,53855,318688,283260
1631023482007,53854,318734,283288
1631023482017,53854,318705,283248
1631023482027,53851,318697,283234
1631023482037,53847,318667,283251
1631023482047,53854,318741,283258
1631023482057,53853,318725,283269
1631023482067,53864,318677,283254
1631023482077,53864,318714,283263
1631023482087,53851,318711,283272
1631023482097,53859,318741,283263
1631023482107,53863,318717,283228
1631023482117,53874,318756,283260
1631023482127,53882,318752,283261
1631023482137,53880,318746,283272
1631023482147,53895,318767,283276
1631023482157,53886,318748,283261
1631023482167,53896,318800,283287
1631023482177,53902,318770,283277
1631023482187,53909,318772,283262
1631023482197,53920,318843,283314
1631023482207,53921,318817,283270
1631023482217,53931,318835,283293
1631023482227,53944,318835,283294
1631023482237,53952,318896,283292
1631023482247,53955,318885,283303
1631023482257,53964,318931,283296
1631023482267,53974,318910,283267
1631023482277,53985,318924,283305
1631023482287,53984,318972,283308
1631023482297,53998,318963,283278
1631023482307,54004,319010,283304
1631023482317,54017,319006,283270
1631023482327,54025,318984,283301
1631023482337,54032,319036,283309
1631023482347,54042,319079,283306
1631023482357,54060,319067,283320
1631023482367,54065,319052,283301
1631023482377,54079,319082,283302
1631023482387,54086,319108,283330
1631023482397,54105,319131,283315
1631023482407,54115,319185,283310
1631023482417,54136,319149,283329
1631023482427,54142,319197,283324
1631023482437,54153,319231,283346
1631023482447,54156,319228,283340
1631023482457,54162,319274,283304
1631023482467,54179,319259,283345
1631023482477,54173,319280,283338
1631023482487,54181,319276,283343
1631023482497,54197,319344,283342
1631023482507,54215,319309,283332
1631023482517,54222,319290,283316
1631023482527,54227,319281,283305
1631023482537,54212,319263,283281
1631023482547,54229,319238,283289
1631023482557,54225,319188,283268
1631023482567,54218,319189,283245
1631023482577,54214,319087,283199
1631023482587,54197,319130,283176
1631023482597,54206,319100,283166
1631023482607,54191,319087,283165
1631023482617,54197,319052,283150
1631023482627,54196,319039,283180
1631023482637,54184,319039,283141
1631023482647,54187,319025,283150
1631023482657,54172,319021,283159
1631023482667,54181,319012,283136
1631023482677,54176,318983,283148
1631023482687,54189,318999,283147
1631023482697,54187,318956,283143
1631023482707,54175,318975,283145
1631023482717,54179,318958,283126
1631023482727,54186,318981,283119
1631023482737,54190,318965,283139
1631023482747,54188,318953,283090
1631023482757,54183,318955,283087
1631023482767,54198,318935,283114
1631023482777,54189,318954,283104
1631023482787,54192,318958,283114
1631023482797,54193,318972,283077
1631023482807,54214,318977,283121
1631023482817,54215,318997,283113
1631023482827,54212,319004,283093
1631023482837,54232,319000,283128
1631023482847,54230,318996,283099
1631023482857,54239,318989,283092
1631023482867,54243,319022,283084
1631023482877,54233,318995,283083
1631023482887,54252,319028,283111
1631023482897,54248,319002,283073
1631023482907,54252,319003,283077
1631023482917,54249,319003,283083
1631023482927,54273,319049,283061
1631023482937,54272,319032,283050
1631023482947,54272,319034,283082
1631023482957,54288,319064,283073
1631023482967,54293,319040,283057
1631023482977,54290,319033,283095
1631023482987,54309,319066,283073
1631023482997,54316,319087,283064
1631023483007,54329,319116,283081
1631023483017,54340,319151,283082
1631023483027,54351,319118,283075
1631023483037,54360,319151,283060
1631023483047,54368,319156,283080
1631023483057,54377,319139,283089
1631023483067,54386,319147,283092
1631023483077,54392,319179,283057
1631023483087,54393,319196,283068
1631023483097,54417,319187,283050
1631023483107,54429,319250,283083
1631023483117,54432,319262,283067
1631023483127,54448,319262,283074
1631023483137,54450,319249,283027
1631023483147,54454,319271,283059
1631023483157,54465,319293,283070
1631023483167,54478,319309,283072
1631023483177,54493,319337,283049
1631023483187,54494,319346,283048
1631023483197,54502,319379,283071
1631023483207,54509,319399,283048
1631023483217,54513,319392,283070
1631023483227,54531,319381,283095
1631023483237,54544,319382,283032
1631023483247,54556,319416,283059
1631023483257,54560,319460,283074
1631023483267,54564,319482,283070
1631023483277,54593,319489,283047
1631023483287,54594,319500,283054
1631023483297,54600,319481,283057
1631023483307,54600,319463,283056
1631023483317,54612,319546,283060
1631023483327,54626,319552,283074
1631023483337,54642,319591,283054
1631023483347,54648,319571,283063
1631023483357,54660,319597,283080
1631023483367,54657,319604,283023
1631023483377,54671,319614,283067
1631023483387,54686,319611,283075
1631023483397,54693,319618,283069
1631023483407,54700,319629,283042
1631023483417,54694,319594,283032
1631023483427,54708,319622,282992
1631023483437,54710,319573,282965
1631023483447,54705,319527,282951
1631023483457,54707,319465,282915
1631023483467,54694,319444,282920
1631023483477,54693,319436,282915
1631023483487,54702,319425,282905
1631023483497,54693,319378,282882
1631023483507,54700,319432,282903
1631023483517,54694,319429,282891
1631023483527,54695,319374,282872
1631023483537,54688,319386,282853
1631023483547,54681,319377,282865
1631023483557,54686,319364,282869
1631023483567,54688,319331,282875
1631023483577,54683,319347,282886
1631023483587,54695,319307,282853
1631023483597,54694,319281,282857
1631023483607,54691,319319,282893
1631023483617,54685,319272,282849
1631023483627,54691,319302,282848
1631023483637,54697,319279,282835
1631023483647,54690,319252,282847
1631023483657,54697,319250,282800
1631023483667,54697,319287,282824
1631023483677,54699,319297,282858
1631023483687,54707,319283,282841
1631023483697,54708,319328,282799
1631023483707,54699,319258,282818
1631023483717,54703,319247,282801
1631023483727,54713,319261,282802
1631023483737,54727,319262,282819
1631023483747,54726,319282,282814
1631023483757,54724,319237,282773
1631023483767,54716,319226,282792
1631023483777,54734,319268,282802
1631023483787,54719,319262,282792
1631023483797,54736,319241,282809
1631023483807,54729,319249,282775
1631023483817,54741,319267,282783
1631023483827,54741,319238,282758
1631023483837,54750,319327,282788
1631023483847,54746,319288,282764
1631023483857,54760,319284,282789
1631023483867,54750,319280,282780
1631023483877,54747,319316,282778
1631023483887,54749,319278,282775
1631023483897,54748,319270,282787
1631023483907,54774,319288,282773
1631023483917,54772,319373,282802
1631023483927,54771,319298,282778
1631023483937,54784,319372,282786
1631023483947,54788,319372,282773
1631023483957,54791,319370,282770
1631023483967,54803,319372,282774
1631023483977,54798,319405,282791
1631023483987,54812,319386,282792
1631023483997,54818,319362,282754
1631023484007,54819,319377,282729
1631023484017,54822,319395,282773
1631023484027,54827,319437,282753
1631023484037,54853,319434,282729
1631023484047,54848,319436,282777
1631023484057,54840,319454,282751
1631023484067,54846,319478,282757
1631023484077,54873,319483,282765
1631023484087,54866,319500,282773
1631023484097,54874,319466,282759
1631023484107,54878,319532,282789
1631023484117,54871,319511,282772
1631023484127,54881,319550,282768
1631023484137,54880,319529,282728
1631023484147,54899,319508,282745
1631023484157,54899,319582,282745
1631023484167,54907,319580,282788
1631023484177,54909,319596,282780
1631023484187,54920,319597,282751
1631023484197,54918,319578,282785
1631023484207,54929,319645,282770
1631023484217,54924,319623,282774
1631023484227,54947,319627,282743
1631023484237,54946,319585,282802
1631023484247,54952,319644,282773
1631023484257,54962,319660,282764
1631023484267,54974,319683,282775
1631023484277,54964,319657,282787
1631023484287,54970,319714,282758
1631023484297,54981,319647,282744
1631023484307,54987,319651,282710
1631023484317,54978,319635,282716
1631023484327,54980,319557,282687
1631023484337,54972,319559,282645
1631023484347,54958,319522,282644
1631023484357,54946,319464,282603
1631023484367,54933,319410,282636
1631023484377,54916,319367,282639
1631023484387,54920,319329,282625
1631023484397,54904,319374,282599
1631023484407,54898,319339,282612
1631023484417,54892,319333,282610
1631023484427,54882,319356,282593
1631023484437,54873,319284,282590
1631023484447,54868,319269,282591
1631023484457,54859,319299,282609
1631023484467,54855,319270,282600
1631023484477,54852,319206,282564
1631023484487,54842,319221,282567
1631023484497,54819,319219,282574
1631023484507,54822,319153,282570
1631023484517,54810,319176,282567
1631023484527,54797,319187,282570
1631023484537,54789,319132,282581
1631023484547,54805,319135,282546
1631023484557,54796,319079,282601
1631023484567,54794,319106,282554
1631023484577,54779,319136,282555
1631023484587,54779,319143,282545
1631023484597,54774,319076,282536
1631023484607,54766,319060,282539
1631023484617,54766,319109,282571
1631023484627,54753,319055,282523
1631023484637,54749,319061,282551
1631023484647,54740,319068,282546
1631023484657,54744,319077,282516
1631023484667,54739,319046,282540
1631023484677,54729,319063,282529
1631023484687,54726,319010,282565
1631023484697,54721,319004,282517
1631023484707,54736,319047,282512
1631023484717,54719,319007,282542
1631023484727,54724,318965,282510
1631023484737,54714,319032,282527
1631023484747,54715,318990,282541
1631023484757,54706,319048,282529
1631023484767,54707,318997,282505
1631023484777,54702,319037,282544
1631023484787,54707,319013,282546
1631023484797,54706,319000,282538
1631023484807,54704,319000,282535
1631023484817,54708,319051,282559
1631023484827,54707,319035,282539
1631023484837,54711,319018,282527
1631023484847,54705,319049,282542
1631023484857,54695,319067,282504
1631023484867,54693,319077,282529
1631023484877,54698,319053,282534
1631023484887,54689,319045,282522
1631023484897,54710,319073,282524
1631023484907,54707,319083,282512
1631023484917,54700,319049,282534
1631023484927,54699,319054,282526
1631023484937,54701,319078,282527
1631023484947,54717,319077,282543
1631023484957,54713,319096,282562
1631023484967,54716,319159,282548
1631023484977,54707,319110,282552
1631023484987,54709,319164,282567
1631023484997,54716,319135,282537
1631023485007,54712,319119,282571
1631023485017,54720,319177,282538
1631023485027,54722,319157,282512
1631023485037,54716,319144,282539
1631023485047,54715,319113,282533
1631023485057,54728,319141,282565
1631023485067,54724,319153,282554
1631023485077,54724,319217,282577
1631023485087,54724,319182,282570
1631023485097,54733,319191,282550
1631023485107,54728,319249,282550
1631023485117,54740,319230,282559
1631023485127,54745,319234,282554
1631023485137,54745,319198,282551
1631023485147,54733,319191,282541
1631023485157,54714,319178,282529
1631023485167,54715,319086,282502
1631023485177,54693,319017,282486
1631023485187,54666,318978,282441
1631023485197,54637,318904,282468
1631023485207,54607,318853,282431
1631023485217,54580,318825,282441
1631023485227,54566,318769,282407
1631023485237,54535,318745,282424
1631023485247,54499,318686,282426
1631023485257,54497,318709,282379
1631023485267,54473,318671,282400
1631023485277,54446,318620,282411
1631023485287,54426,318632,282387
1631023485297,54403,318553,282406
1631023485307,54385,318639,282382
1631023485317,54358,318526,282390
1631023485327,54335,318518,282380
1631023485337,54313,318476,282370
1631023485347,54288,318438,282383
1631023485357,54277,318406,282392
1631023485367,54265,318357,282384
1631023485377,54242,318359,282376
1631023485387,54216,318368,282374
1631023485397,54208,318328,282393
1631023485407,54200,318364,282388
1631023485417,54188,318375,282383
1631023485427,54182,318329,282401
1631023485437,54165,318312,282432
1631023485447,54163,318286,282428
1631023485457,54149,318297,282410
1631023485467,54132,318285,282384
1631023485477,54111,318269,282415
1631023485487,54097,318266,282392
1631023485497,54085,318254,282435
1631023485507,54089,318265,282411
1631023485517,54069,318223,282377
1631023485527,54064,318274,282399
1631023485537,54049,318204,282405
1631023485547,54039,318215,282432
1631023485557,54019,318211,282438
1631023485567,54019,318204,282425
1631023485577,54009,318238,282450
1631023485587,53988,318244,282405
1631023485597,53991,318212,282437
1631023485607,53994,318195,282427
1631023485617,53987,318184,282435
1631023485627,53992,318248,282419
1631023485637,53987,318229,282444
1631023485647,53976,318260,282458
1631023485657,53973,318226,282460
1631023485667,53966,318237,282481
1631023485677,53981,318285,282489
1631023485687,53977,318288,282485
1631023485697,53965,318263,282478
1631023485707,53964,318244,282477
1631023485717,53964,318284,282504
1631023485727,53957,318257,282476
1631023485737,53962,318285,282497
1631023485747,53952,318281,282532
1631023485757,53959,318313,282516
1631023485767,53968,318323,282513
1631023485777,53959,318343,282543
1631023485787,53963,318316,282554
1631023485797,53956,318351,282562
1631023485807,53958,318368,282559
1631023485817,53954,318383,282551
1631023485827,53965,318356,282559
1631023485837,53966,318386,282565
1631023485847,53968,318412,282560
1631023485857,53979,318451,282570
1631023485867,53977,318414,282577
1631023485877,53979,318426,282573
1631023485887,53976,318479,282585
1631023485897,53977,318426,282581
1631023485907,53988,318465,282615
1631023485917,53987,318490,282573
1631023485927,53991,318481,282585
1631023485937,53996,318523,282621
1631023485947,53988,318536,282607
1631023485957,53998,318537,282644
1631023485967,53998,318501,282634
1631023485977,54009,318547,282641
1631023485987,54003,318598,282639
1631023485997,54022,318586,282628
