timestamp,green,ir,red
1631024004188,52832,57814,57860
1631024004198,52404,90594,90637
1631024004208,52400,123367,123411
1631024004218,52389,156140,156186
1631024004228,52384,188906,188807
1631024004238,52371,221551,221587
1631024004248,52375,254287,254160
1631024004258,52367,286891,271376
1631024004268,52358,315802,271309
1631024004278,52357,315808,271309
1631024004288,52348,315775,271303
1631024004298,52346,315782,271326
1631024004308,52356,315800,271273
1631024004318,52349,315800,271313
1631024004328,52345,315791,271304
1631024004338,52355,315792,271306
1631024004348,52337,315760,271278
1631024004358,52347,315787,271271
1631024004368,52350,315776,271289
1631024004378,52349,315744,271253
1631024004388,52356,315771,271280
1631024004398,52358,315710,271262
1631024004408,52330,315725,271218
1631024004418,52314,315683,271120
1631024004428,52295,315632,271000
1631024004438,52271,315623,270925
1631024004448,52248,315633,270840
1631024004458,52225,315557,270725
1631024004468,52199,315531,270661
1631024004478,52200,315520,270622
1631024004488,52185,315527,270620
1631024004498,52211,315569,270655
1631024004508,52214,315650,270667
1631024004518,52232,315633,270688
1631024004528,52243,315699,270724
1631024004538,52250,315709,270775
1631024004548,52247,315710,270797
1631024004558,52291,315763,270836
1631024004568,52289,315755,270876
1631024004578,52312,315753,270842
1631024004588,52319,315754,270867
1631024004598,52300,315675,270833
1631024004608,52295,315648,270864
1631024004618,52288,315550,270769
1631024004628,52247,315517,270780
1631024004638,52243,315430,270739
1631024004648,52225,315349,270739
1631024004658,52183,315296,270738
1631024004668,52171,315258,270721
1631024004678,52140,315219,270718
1631024004688,52129,315207,270699
1631024004698,52119,315202,270691
1631024004708,52088,315164,270687
1631024004718,52092,315173,270668
1631024004728,52070,315138,270648
1631024004738,52052,315093,270644
1631024004748,52036,315094,270617
1631024004758,52017,315051,270630
1631024004768,52023,315083,270628
1631024004778,52006,315027,270642
1631024004788,52003,315062,270639
1631024004798,51990,315056,270659
1631024004808,51996,315089,270646
1631024004818,51981,315040,270672
1631024004828,51976,315077,270692
1631024004838,51965,315035,270655
1631024004848,51977,315048,270674
1631024004858,51971,315118,270686
1631024004868,51974,315040,270669
1631024004878,51971,315084,270669
1631024004888,51970,315058,270681
1631024004898,51955,315069,270683
1631024004908,51956,315085,270713
1631024004918,51944,315111,270698
1631024004928,51939,315098,270723
1631024004938,51947,315132,270697
1631024004948,51937,315097,270742
1631024004958,51942,315131,270722
1631024004968,51943,315104,270740
1631024004978,51947,315120,270743
1631024004988,51951,315175,270760
1631024004998,51952,315159,270762
1631024005008,51953,315178,270759
1631024005018,51953,315200,270717
1631024005028,51943,315177,270703
1631024005038,51943,315145,270696
1631024005048,51918,315110,270562
1631024005058,51908,315099,270491
1631024005068,51885,315034,270403
1631024005078,51869,315046,270352
1631024005088,51861,315044,270334
1631024005098,51861,315073,270351
1631024005108,51872,315114,270365
1631024005118,51882,315122,270363
1631024005128,51897,315197,270390
1631024005138,51904,315217,270448
1631024005148,51922,315195,270481
1631024005158,51929,315267,270501
1631024005168,51939,315235,270460
1631024005178,51936,315214,270478
1631024005188,51930,315149,270464
1631024005198,51926,315122,270454
1631024005208,51894,315054,270397
1631024005218,51868,314935,270375
1631024005228,51836,314868,270327
1631024005238,51799,314769,270348
1631024005248,51776,314762,270291
1631024005258,51766,314749,270325
1631024005268,51752,314739,270353
1631024005278,51742,314664,270377
1631024005288,51716,314695,270364
1631024005298,51707,314676,270355
1631024005308,51701,314630,270385
1631024005318,51688,314627,270393
1631024005328,51675,314628,270403
1631024005338,51678,314667,270394
1631024005348,51659,314643,270405
1631024005358,51660,314636,270429
1631024005368,51647,314653,270457
1631024005378,51649,314713,270500
1631024005388,51646,314697,270498
1631024005398,51652,314712,270533
1631024005408,51654,314735,270585
1631024005418,51652,314768,270586
1631024005428,51659,314765,270607
1631024005438,51649,314763,270591
1631024005448,51656,314796,270609
1631024005458,51654,314814,270635
1631024005468,51656,314802,270661
1631024005478,51655,314851,270638
1631024005488,51669,314806,270699
1631024005498,51672,314896,270714
1631024005508,51672,314852,270752
1631024005518,51698,314879,270778
1631024005528,51698,314926,270812
1631024005538,51708,314941,270893
1631024005548,51719,314923,270867
1631024005558,51720,315023,270910
1631024005568,51729,314993,270947
1631024005578,51735,315033,270962
1631024005588,51745,315035,271010
1631024005598,51754,315086,271030
1631024005608,51761,315082,271044
1631024005618,51772,315126,271086
1631024005628,51783,315188,271102
1631024005638,51799,315174,271145
1631024005648,51800,315201,271197
1631024005658,51827,315194,271238
1631024005668,51823,315258,271239
1631024005678,51844,315250,271271
1631024005688,51862,315325,271319
1631024005698,51862,315364,271351
1631024005708,51878,315382,271381
1631024005718,51883,315392,271396
1631024005728,51894,315410,271401
1631024005738,51904,315423,271447
1631024005748,51923,315465,271489
1631024005758,51931,315508,271507
1631024005768,51941,315477,271513
1631024005778,51943,315489,271535
1631024005788,51950,315412,271506
1631024005798,51916,315321,271480
1631024005808,51896,315253,271436
1631024005818,51866,315176,271384
1631024005828,51835,315120,271400
1631024005838,51820,315049,271379
1631024005848,51795,315048,271410
1631024005858,51775,315004,271401
1631024005868,51754,314997,271395
1631024005878,51741,314996,271389
1631024005888,51724,314957,271406
1631024005898,51709,314938,271410
1631024005908,51702,314939,271413
1631024005918,51697,314921,271417
1631024005928,51685,314968,271385
1631024005938,51680,314920,271406
1631024005948,51665,314956,271420
1631024005958,51664,314947,271425
1631024005968,51659,314960,271414
1631024005978,51659,314900,271457
1631024005988,51670,314898,271446
1631024005998,51672,314953,271456
1631024006008,51657,314962,271496
1631024006018,51668,315002,271505
1631024006028,51668,314972,271455
1631024006038,51675,314995,271469
1631024006048,51649,315032,271467
1631024006058,51659,314992,271487
1631024006068,51667,315041,271514
1631024006078,51659,315019,271498
1631024006088,51668,315019,271498
1631024006098,51658,315036,271499
1631024006108,51660,315049,271502
1631024006118,51668,315033,271507
1631024006128,51661,315033,271498
1631024006138,51676,315054,271534
1631024006148,51681,315035,271549
1631024006158,51690,315100,271549
1631024006168,51685,315092,271545
1631024006178,51695,315108,271553
1631024006188,51685,315139,271546
1631024006198,51692,315142,271567
1631024006208,51706,315151,271577
1631024006218,51709,315156,271560
1631024006228,51709,315163,271596
1631024006238,51714,315206,271609
1631024006248,51712,315242,271602
1631024006258,51719,315240,271586
1631024006268,51733,315230,271633
1631024006278,51741,315232,271610
1631024006288,51745,315260,271626
1631024006298,51758,315313,271650
1631024006308,51756,315299,271643
1631024006318,51767,315321,271642
1631024006328,51776,315324,271658
1631024006338,51778,315346,271642
1631024006348,51785,315348,271646
1631024006358,51766,315250,271595
1631024006368,51741,315212,271576
1631024006378,51719,315137,271526
1631024006388,51683,315050,271489
1631024006398,51663,315002,271482
1631024006408,51642,314961,271461
1631024006418,51613,314889,271478
1631024006428,51598,314904,271491
1631024006438,51590,314869,271460
1631024006448,51581,314895,271483
1631024006458,51571,314864,271512
1631024006468,51566,314829,271506
1631024006478,51574,314830,271520
1631024006488,51552,314820,271527
1631024006498,51550,314831,271508
1631024006508,51543,314800,271530
1631024006518,51539,314815,271541
1631024006528,51537,314802,271517
1631024006538,51527,314844,271558
1631024006548,51527,314831,271583
1631024006558,51532,314831,271580
1631024006568,51539,314887,271579
1631024006578,51535,314869,271601
1631024006588,51552,314911,271622
1631024006598,51542,314873,271594
1631024006608,51550,314932,271642
1631024006618,51551,314931,271609
1631024006628,51544,314916,271614
1631024006638,51545,314932,271636
1631024006648,51556,314937,271652
1631024006658,51558,314932,271634
1631024006668,51555,314926,271661
1631024006678,51557,315017,271645
1631024006688,51566,314984,271684
1631024006698,51567,314992,271661
1631024006708,51572,315006,271655
1631024006718,51577,315006,271655
1631024006728,51577,315046,271684
1631024006738,51576,315011,271693
1631024006748,51589,315032,271682
1631024006758,51595,315034,271671
1631024006768,51606,315069,271676
1631024006778,51613,315055,271701
1631024006788,51622,315095,271706
1631024006798,51629,315086,271705
1631024006808,51640,315133,271687
1631024006818,51637,315134,271662
1631024006828,51630,315103,271694
1631024006838,51653,315151,271689
1631024006848,51655,315146,271688
1631024006858,51656,315178,271716
1631024006868,51666,315188,271732
1631024006878,51677,315231,271728
1631024006888,51685,315251,271742
1631024006898,51695,315274,271751
1631024006908,51695,315256,271751
1631024006918,51703,315248,271718
1631024006928,51702,315170,271645
1631024006938,51684,315161,271653
1631024006948,51678,315064,271628
1631024006958,51655,315006,271567
1631024006968,51626,314910,271552
1631024006978,51613,314920,271543
1631024006988,51590,314859,271542
1631024006998,51583,314795,271505
1631024007008,51558,314794,271512
1631024007018,51556,314770,271555
1631024007028,51547,314767,271535
1631024007038,51547,314782,271564
1631024007048,51540,314798,271568
1631024007058,51536,314773,271564
1631024007068,51528,314788,271572
1631024007078,51529,314758,271556
1631024007088,51528,314787,271609
1631024007098,51526,314741,271599
1631024007108,51531,314674,271571
1631024007118,51519,314744,271586
1631024007128,51528,314773,271602
1631024007138,51527,314792,271642
1631024007148,51524,314786,271635
1631024007158,51530,314822,271608
1631024007168,51536,314808,271597
1631024007178,51532,314800,271632
1631024007188,51535,314837,271628
1631024007198,51538,314778,271630
1631024007208,51540,314841,271626
1631024007218,51545,314871,271635
1631024007228,51548,314855,271618
1631024007238,51549,314856,271646
1631024007248,51558,314890,271649
1631024007258,51562,314882,271663
1631024007268,51571,314877,271634
1631024007278,51573,314920,271678
1631024007288,51575,314922,271655
1631024007298,51579,314993,271656
1631024007308,51592,314951,271680
1631024007318,51602,314936,271679
1631024007328,51601,314985,271705
1631024007338,51614,314960,271669
1631024007348,51610,314995,271698
1631024007358,51608,315029,271716
1631024007368,51616,315028,271679
1631024007378,51623,315070,271703
1631024007388,51631,315050,271707
1631024007398,51647,315117,271713
1631024007408,51661,315079,271739
1631024007418,51658,315084,271733
1631024007428,51665,315166,271700
1631024007438,51677,315127,271712
1631024007448,51691,315164,271708
1631024007458,51690,315175,271727
1631024007468,51715,315162,271723
1631024007478,51707,315214,271754
1631024007488,51719,315235,271752
1631024007498,51728,315239,271715
1631024007508,51723,315314,271744
1631024007518,51742,315300,271730
1631024007528,51735,315287,271732
1631024007538,51733,315244,271652
1631024007548,51717,315177,271632
1631024007558,51703,315103,271618
1631024007568,51681,315044,271565
1631024007578,51664,315007,271556
1631024007588,51645,314903,271548
1631024007598,51632,314903,271498
1631024007608,51612,314876,271515
1631024007618,51605,314898,271507
1631024007628,51596,314878,271507
1631024007638,51596,314818,271503
1631024007648,51587,314821,271507
1631024007658,51586,314911,271549
1631024007668,51586,314873,271519
1631024007678,51583,314869,271542
1631024007688,51579,314841,271508
1631024007698,51572,314827,271541
1631024007708,51566,314836,271515
1631024007718,51565,314791,271525
1631024007728,51566,314854,271535
1631024007738,51572,314839,271528
1631024007748,51569,314854,271562
1631024007758,51589,314884,271556
1631024007768,51589,314875,271552
1631024007778,51601,314921,271550
1631024007788,51591,314887,271577
1631024007798,51611,314903,271603
1631024007808,51607,314889,271559
1631024007818,51621,314899,271603
1631024007828,51626,314916,271582
1631024007838,51634,314949,271580
1631024007848,51626,314940,271587
1631024007858,51627,314944,271557
1631024007868,51633,314945,271583
1631024007878,51641,314939,271592
1631024007888,51650,314945,271586
1631024007898,51658,314995,271607
1631024007908,51659,314991,271626
1631024007918,51679,315033,271617
1631024007928,51687,315063,271628
1631024007938,51683,315069,271638
1631024007948,51689,315062,271619
1631024007958,51705,315067,271611
1631024007968,51706,315112,271653
1631024007978,51714,315077,271643
1631024007988,51719,315103,271621
1631024007998,51720,315134,271651
1631024008008,51735,315205,271669
1631024008018,51739,315184,271670
1631024008028,51745,315139,271622
1631024008038,51755,315207,271637
1631024008048,51763,315213,271643
1631024008058,51770,315235,271650
1631024008068,51773,315252,271656
1631024008078,51796,315316,271679
1631024008088,51803,315306,271667
1631024008098,51814,315313,271696
1631024008108,51830,315355,271710
1631024008118,51831,315343,271738
1631024008128,51836,315365,271691
1631024008138,51848,315354,271712
1631024008148,51845,315387,271700
1631024008158,51854,315397,271709
1631024008168,51852,315373,271628
1631024008178,51843,315328,271616
1631024008188,51838,315286,271597
1631024008198,51826,315183,271563
1631024008208,51815,315114,271486
1631024008218,51797,315067,271502
1631024008228,51781,314984,271492
1631024008238,51777,315041,271478
1631024008248,51762,314950,271499
1631024008258,51769,315011,271512
1631024008268,51755,314945,271478
1631024008278,51754,314954,271463
1631024008288,51757,314939,271482
1631024008298,51749,314923,271510
1631024008308,51756,314929,271501
1631024008318,51753,314941,271508
1631024008328,51749,314915,271518
1631024008338,51756,314971,271539
1631024008348,51755,314977,271530
1631024008358,51753,314967,271541
1631024008368,51759,314957,271555
1631024008378,51760,314976,271554
1631024008388,51764,314949,271546
1631024008398,51774,314980,271556
1631024008408,51787,314998,271557
1631024008418,51782,314986,271558
1631024008428,51789,315011,271534
1631024008438,51799,315054,271574
1631024008448,51799,315061,271560
1631024008458,51798,315049,271587
1631024008468,51809,315053,271582
1631024008478,51803,315041,271613
1631024008488,51811,315042,271601
1631024008498,51813,315031,271570
1631024008508,51828,315050,271589
1631024008518,51826,315072,271594
1631024008528,51824,315101,271616
1631024008538,51820,315039,271584
1631024008548,51829,315087,271590
1631024008558,51835,315076,271598
1631024008568,51855,315073,271611
1631024008578,51844,315110,271584
1631024008588,51863,315104,271588
1631024008598,51856,315116,271598
1631024008608,51865,315137,271610
1631024008618,51872,315143,271624
1631024008628,51884,315116,271603
1631024008638,51881,315205,271625
1631024008648,51900,315169,271630
1631024008658,51904,315191,271624
1631024008668,51901,315199,271638
1631024008678,51904,315183,271608
1631024008688,51916,315249,271623
1631024008698,51918,315216,271642
1631024008708,51928,315244,271662
1631024008718,51930,315254,271632
1631024008728,51941,315295,271625
1631024008738,51946,315296,271624
1631024008748,51939,315287,271639
1631024008758,51961,315263,271612
1631024008768,51959,315314,271636
1631024008778,51956,315285,271610
1631024008788,51956,315286,271564
1631024008798,51944,315133,271496
1631024008808,51920,315147,271478
1631024008818,51894,315099,271432
1631024008828,51885,315005,271414
1631024008838,51869,314965,271417
1631024008848,51857,314895,271387
1631024008858,51843,314813,271396
1631024008868,51830,314856,271394
1631024008878,51829,314824,271361
1631024008888,51826,314817,271385
1631024008898,51805,314811,271412
1631024008908,51813,314777,271388
1631024008918,51812,314782,271385
1631024008928,51810,314769,271379
1631024008938,51790,314786,271372
1631024008948,51782,314739,271354
1631024008958,51779,314716,271380
1631024008968,51785,314788,271364
1631024008978,51777,314724,271410
1631024008988,51791,314710,271365
1631024008998,51779,314758,271368
1631024009008,51789,314749,271365
1631024009018,51777,314692,271366
1631024009028,51774,314741,271351
1631024009038,51766,314705,271350
1631024009048,51787,314740,271388
1631024009058,51786,314711,271343
1631024009068,51772,314690,271315
1631024009078,51777,314691,271349
1631024009088,51768,314673,271302
1631024009098,51769,314669,271310
1631024009108,51762,314680,271289
1631024009118,51756,314666,271315
1631024009128,51760,314698,271298
1631024009138,51758,314693,271280
1631024009148,51748,314706,271284
1631024009158,51758,314666,271261
1631024009168,51762,314708,271310
1631024009178,51753,314702,271273
1631024009188,51750,314705,271280
1631024009198,51756,314736,271284
1631024009208,51759,314729,271274
1631024009218,51760,314728,271254
1631024009228,51761,314759,271259
1631024009238,51764,314756,271255
1631024009248,51769,314742,271207
1631024009258,51757,314716,271218
1631024009268,51757,314751,271226
1631024009278,51758,314758,271196
1631024009288,51753,314721,271151
1631024009298,51753,314717,271138
1631024009308,51744,314679,271121
1631024009318,51743,314715,271120
1631024009328,51737,314721,271115
1631024009338,51735,314744,271068
1631024009348,51736,314677,271083
1631024009358,51730,314720,271042
1631024009368,51738,314718,271061
1631024009378,51733,314689,271002
1631024009388,51712,314632,270927
1631024009398,51704,314598,270916
1631024009408,51673,314512,270836
1631024009418,51647,314471,270778
1631024009428,51619,314327,270719
1631024009438,51596,314247,270675
1631024009448,51564,314185,270647
1631024009458,51550,314090,270610
1631024009468,51529,314114,270604
1631024009478,51512,314049,270630
1631024009488,51497,314059,270640
1631024009498,51485,314007,270606
1631024009508,51485,313990,270585
1631024009518,51469,313947,270589
1631024009528,51455,313932,270559
1631024009538,51447,313886,270567
1631024009548,51438,313917,270584
1631024009558,51426,313891,270548
1631024009568,51427,313833,270525
1631024009578,51404,313830,270558
1631024009588,51393,313828,270521
1631024009598,51392,313794,270501
1631024009608,51380,313756,270510
1631024009618,51380,313760,270518
1631024009628,51381,313787,270519
1631024009638,51379,313787,270522
1631024009648,51373,313780,270476
1631024009658,51374,313765,270515
1631024009668,51367,313728,270470
1631024009678,51369,313737,270480
1631024009688,51360,313740,270477
1631024009698,51354,313689,270492
1631024009708,51354,313715,270490
1631024009718,51350,313685,270450
1631024009728,51352,313666,270456
1631024009738,51356,313679,270446
1631024009748,51349,313676,270454
1631024009758,51351,313680,270439
1631024009768,51348,313686,270478
1631024009778,51342,313701,270446
1631024009788,51347,313718,270446
1631024009798,51350,313719,270467
1631024009808,51351,313706,270456
1631024009818,51355,313720,270458
1631024009828,51361,313713,270483
1631024009838,51364,313747,270480
1631024009848,51363,313782,270481
1631024009858,51369,313782,270499
1631024009868,51369,313812,270510
1631024009878,51378,313770,270486
1631024009888,51375,313795,270519
1631024009898,51391,313828,270543
1631024009908,51378,313842,270505
1631024009918,51396,313857,270531
1631024009928,51393,313845,270519
1631024009938,51396,313847,270525
1631024009948,51407,313878,270555
1631024009958,51418,313901,270541
1631024009968,51417,313919,270558
1631024009978,51430,313930,270586
1631024009988,51442,313965,270570
1631024009998,51447,313971,270599
1631024010008,51463,313964,270590
1631024010018,51470,313999,270605
1631024010028,51476,313992,270625
1631024010038,51479,314003,270527
1631024010048,51457,313908,270543
1631024010058,51445,313844,270504
1631024010068,51417,313745,270461
1631024010078,51398,313691,270446
1631024010088,51366,313642,270417
1631024010098,51343,313606,270377
1631024010108,51330,313520,270402
1631024010118,51310,313508,270387
1631024010128,51293,313506,270398
1631024010138,51290,313495,270423
1631024010148,51282,313441,270407
1631024010158,51279,313490,270432
1631024010168,51273,313452,270446
1631024010178,51264,313463,270452
1631024010188,51265,313436,270449
1631024010198,51259,313447,270499
1631024010208,51263,313429,270498
1631024010218,51258,313430,270531
1631024010228,51261,313497,270530
1631024010238,51270,313454,270549
1631024010248,51261,313484,270570
1631024010258,51264,313490,270605
1631024010268,51266,313548,270620
1631024010278,51270,313508,270632
1631024010288,51275,313575,270672
1631024010298,51282,313640,270699
1631024010308,51280,313594,270686
1631024010318,51283,313579,270719
1631024010328,51281,313605,270733
1631024010338,51288,313604,270714
1631024010348,51285,313675,270740
1631024010358,51298,313716,270777
1631024010368,51312,313686,270781
1631024010378,51315,313717,270809
1631024010388,51324,313707,270804
1631024010398,51322,313705,270821
1631024010408,51327,313688,270835
1631024010418,51323,313757,270851
1631024010428,51330,313737,270850
1631024010438,51330,313787,270894
1631024010448,51338,313830,270892
1631024010458,51347,313845,270904
1631024010468,51360,313864,270953
1631024010478,51364,313896,270977
1631024010488,51380,313934,270991
1631024010498,51385,313909,270999
1631024010508,51402,313981,271022
1631024010518,51410,313993,271033
1631024010528,51410,314007,271030
1631024010538,51434,313994,271061
1631024010548,51438,314034,271059
1631024010558,51442,314069,271074
1631024010568,51455,314093,271061
1631024010578,51457,314125,271079
1631024010588,51461,314129,271109
1631024010598,51484,314174,271114
1631024010608,51494,314132,271149
1631024010618,51499,314185,271148
1631024010628,51495,314205,271136
1631024010638,51506,314285,271136
1631024010648,51520,314247,271164
1631024010658,51528,314233,271159
1631024010668,51536,314352,271148
1631024010678,51545,314286,271193
1631024010688,51554,314259,271131
1631024010698,51563,314271,271137
1631024010708,51545,314237,271060
1631024010718,51533,314171,271020
1631024010728,51514,314132,270957
1631024010738,51494,314026,270914
1631024010748,51476,313943,270892
1631024010758,51471,313944,270905
1631024010768,51459,313874,270887
1631024010778,51434,313944,270901
1631024010788,51433,313843,270905
1631024010798,51431,313838,270923
1631024010808,51416,313908,270940
1631024010818,51415,313894,270969
1631024010828,51423,313905,271006
1631024010838,51434,313870,271019
1631024010848,51439,313905,271056
1631024010858,51431,313896,271022
1631024010868,51429,313926,271057
1631024010878,51437,313947,271085
1631024010888,51432,313965,271105
1631024010898,51434,313937,271092
1631024010908,51442,313962,271146
1631024010918,51447,313998,271187
1631024010928,51454,314067,271204
1631024010938,51463,314054,271196
1631024010948,51467,314077,271214
1631024010958,51481,314059,271217
1631024010968,51479,314063,271231
1631024010978,51486,314050,271239
1631024010988,51497,314038,271188
1631024010998,51499,314047,271223
1631024011008,51503,314087,271226
1631024011018,51498,314107,271176
1631024011028,51497,314031,271193
1631024011038,51493,314067,271199
1631024011048,51510,314077,271191
1631024011058,51499,314111,271206
1631024011068,51510,314114,271223
1631024011078,51505,314170,271190
1631024011088,51510,314157,271254
1631024011098,51514,314200,271222
1631024011108,51526,314177,271228
1631024011118,51527,314225,271223
1631024011128,51530,314228,271261
1631024011138,51544,314226,271263
1631024011148,51555,314274,271248
1631024011158,51550,314332,271302
1631024011168,51566,314300,271264
1631024011178,51582,314288,271298
1631024011188,51576,314321,271282
1631024011198,51584,314361,271298
1631024011208,51588,314352,271296
1631024011218,51585,314357,271248
1631024011228,51588,314373,271277
1631024011238,51594,314391,271280
1631024011248,51598,314396,271263
1631024011258,51609,314403,271244
1631024011268,51610,314456,271282
1631024011278,51606,314474,271280
1631024011288,51614,314466,271246
1631024011298,51619,314484,271220
1631024011308,51617,314488,271166
1631024011318,51614,314449,271143
1631024011328,51589,314373,271070
1631024011338,51569,314364,271023
1631024011348,51547,314237,270959
1631024011358,51529,314195,270910
1631024011368,51518,314153,270915
1631024011378,51496,314084,270862
1631024011388,51492,314054,270893
1631024011398,51474,314059,270874
1631024011408,51460,314064,270835
1631024011418,51453,314024,270866
1631024011428,51441,314067,270875
1631024011438,51443,314081,270862
1631024011448,51425,314015,270835
1631024011458,51422,314032,270868
1631024011468,51415,314018,270869
1631024011478,51410,314069,270872
1631024011488,51420,314059,270909
1631024011498,51431,314034,270892
1631024011508,51423,314087,270930
1631024011518,51429,314093,270914
1631024011528,51419,314061,270921
1631024011538,51420,314130,270944
1631024011548,51425,314136,270969
1631024011558,51427,314148,270949
1631024011568,51425,314125,270919
1631024011578,51423,314132,270930
1631024011588,51424,314037,270901
1631024011598,51423,314038,270883
1631024011608,51422,314041,270851
1631024011618,51418,314068,270838
1631024011628,51424,314051,270869
1631024011638,51418,313969,270829
1631024011648,51432,314008,270827
1631024011658,51417,314012,270827
1631024011668,51427,313987,270832
1631024011678,51431,314027,270784
1631024011688,51425,313981,270791
1631024011698,51425,313974,270782
1631024011708,51413,314008,270739
1631024011718,51419,313964,270738
1631024011728,51419,313973,270714
1631024011738,51415,313967,270724
1631024011748,51413,313933,270704
1631024011758,51422,313927,270695
1631024011768,51421,313969,270679
1631024011778,51417,313906,270665
1631024011788,51420,313930,270686
1631024011798,51426,313946,270702
1631024011808,51434,313955,270686
1631024011818,51433,313995,270706
1631024011828,51442,313974,270708
1631024011838,51443,314024,270694
1631024011848,51461,314024,270734
1631024011858,51461,314034,270736
1631024011868,51461,314031,270754
1631024011878,51471,314043,270741
1631024011888,51463,314035,270726
1631024011898,51465,314037,270670
1631024011908,51445,313942,270654
1631024011918,51435,313860,270617
1631024011928,51414,313821,270608
1631024011938,51408,313802,270569
1631024011948,51388,313703,270589
1631024011958,51388,313669,270583
1631024011968,51383,313630,270577
1631024011978,51379,313583,270564
1631024011988,51365,313576,270551
1631024011998,51350,313560,270551
1631024012008,51338,313528,270561
1631024012018,51334,313541,270568
1631024012028,51323,313503,270555
1631024012038,51309,313502,270509
1631024012048,51307,313486,270537
1631024012058,51295,313450,270549
1631024012068,51289,313517,270595
1631024012078,51291,313460,270590
1631024012088,51291,313503,270599
1631024012098,51286,313462,270627
1631024012108,51291,313463,270614
1631024012118,51287,313509,270616
1631024012128,51302,313506,270663
1631024012138,51311,313568,270660
1631024012148,51304,313530,270698
1631024012158,51316,313570,270662
1631024012168,51315,313556,270690
1631024012178,51316,313531,270700
1631024012188,51335,313558,270703
1631024012198,51328,313591,270728
1631024012208,51333,313601,270746
1631024012218,51338,313628,270750
1631024012228,51344,313645,270767
1631024012238,51350,313692,270780
1631024012248,51357,313661,270780
1631024012258,51361,313700,270821
1631024012268,51370,313685,270833
1631024012278,51365,313717,270823
1631024012288,51393,313712,270842
1631024012298,51386,313733,270824
1631024012308,51393,313753,270861
1631024012318,51407,313808,270918
1631024012328,51417,313763,270897
1631024012338,51422,313816,270906
1631024012348,51438,313840,270914
1631024012358,51443,313816,270937
1631024012368,51444,313876,270955
1631024012378,51458,313902,270962
1631024012388,51460,313874,270966
1631024012398,51468,313920,270965
1631024012408,51475,313919,270943
1631024012418,51483,313923,270963
1631024012428,51489,313940,270941
1631024012438,51494,313964,270980
1631024012448,51512,313903,270962
1631024012458,51532,313933,270989
1631024012468,51523,313887,270920
1631024012478,51507,313839,270892
1631024012488,51494,313730,270840
1631024012498,51483,313678,270806
1631024012508,51460,313624,270780
1631024012518,51436,313531,270774
1631024012528,51432,313553,270780
1631024012538,51420,313510,270781
1631024012548,51422,313528,270807
1631024012558,51419,313532,270836
1631024012568,51415,313543,270835
1631024012578,51411,313518,270866
1631024012588,51422,313526,270882
1631024012598,51414,313505,270886
1631024012608,51414,313472,270889
1631024012618,51406,313554,270924
1631024012628,51403,313554,270921
1631024012638,51397,313548,270951
1631024012648,51400,313553,270971
1631024012658,51397,313574,270998
1631024012668,51400,313599,271013
1631024012678,51395,313602,271048
1631024012688,51403,313660,271063
1631024012698,51412,313717,271102
1631024012708,51423,313723,271130
1631024012718,51428,313795,271147
1631024012728,51433,313791,271210
1631024012738,51444,313881,271225
1631024012748,51447,313841,271215
1631024012758,51442,313880,271232
1631024012768,51444,313929,271247
1631024012778,51446,313954,271226
1631024012788,51455,313957,271285
1631024012798,51450,313921,271251
1631024012808,51461,314027,271286
1631024012818,51462,314008,271253
1631024012828,51472,313999,271236
1631024012838,51472,314001,271282
1631024012848,51471,314021,271281
1631024012858,51472,314012,271255
1631024012868,51476,314037,271230
1631024012878,51481,314075,271254
1631024012888,51487,314034,271275
1631024012898,51500,313981,271266
1631024012908,51508,313999,271224
1631024012918,51508,314036,271256
1631024012928,51514,314008,271225
1631024012938,51528,313989,271251
1631024012948,51523,314000,271203
1631024012958,51538,313974,271178
1631024012968,51522,313967,271176
1631024012978,51527,313967,271144
1631024012988,51525,313920,271120
1631024012998,51540,313903,271095
1631024013008,51534,313825,271051
1631024013018,51531,313913,271013
1631024013028,51534,313869,271029
1631024013038,51535,313834,271025
1631024013048,51523,313868,270995
1631024013058,51526,313831,270949
1631024013068,51523,313767,270912
1631024013078,51514,313688,270857
1631024013088,51495,313656,270838
1631024013098,51488,313591,270805
1631024013108,51470,313525,270722
1631024013118,51448,313471,270687
1631024013128,51426,313388,270689
1631024013138,51402,313393,270682
1631024013148,51404,313340,270675
1631024013158,51390,313287,270636
1631024013168,51382,313274,270642
1631024013178,51373,313250,270644
1631024013188,51367,313207,270635
1631024013198,51366,313223,270649
1631024013208,51357,313148,270633
1631024013218,51357,313156,270632
1631024013228,51356,313110,270668
1631024013238,51349,313063,270622
1631024013248,51360,313083,270621
1631024013258,51339,313063,270618
1631024013268,51352,313070,270639
1631024013278,51349,313022,270617
1631024013288,51339,313056,270659
1631024013298,51351,313081,270682
1631024013308,51362,313142,270700
1631024013318,51372,313164,270742
1631024013328,51367,313148,270779
1631024013338,51377,313184,270779
1631024013348,51386,313197,270793
1631024013358,51380,313207,270781
1631024013368,51386,313181,270825
1631024013378,51396,313225,270821
1631024013388,51416,313276,270826
1631024013398,51415,313277,270833
1631024013408,51413,313309,270858
1631024013418,51416,313300,270873
1631024013428,51434,313291,270866
1631024013438,51447,313327,270868
1631024013448,51438,313355,270903
1631024013458,51441,313362,270899
1631024013468,51452,313323,270894
1631024013478,51458,313398,270900
1631024013488,51459,313392,270866
1631024013498,51469,313363,270890
1631024013508,51481,313364,270906
1631024013518,51478,313444,270916
1631024013528,51485,313379,270896
1631024013538,51500,313396,270907
1631024013548,51506,313402,270922
1631024013558,51513,313401,270909
1631024013568,51525,313372,270893
1631024013578,51526,313344,270927
1631024013588,51545,313414,270948
1631024013598,51544,313384,270909
1631024013608,51566,313405,270903
1631024013618,51559,313400,270920
1631024013628,51579,313425,270925
1631024013638,51586,313424,270944
1631024013648,51583,313473,270945
1631024013658,51582,313494,270981
1631024013668,51599,313547,270955
1631024013678,51608,313581,270997
1631024013688,51622,313595,271020
1631024013698,51625,313562,271022
1631024013708,51634,313629,271013
1631024013718,51624,313605,270966
1631024013728,51613,313599,271009
1631024013738,51600,313605,270970
1631024013748,51613,313538,270947
1631024013758,51606,313504,270957
1631024013768,51594,313468,270944
1631024013778,51569,313444,270945
1631024013788,51573,313389,270945
1631024013798,51559,313440,270966
1631024013808,51563,313415,270970
1631024013818,51558,313413,270978
1631024013828,51557,313449,270970
1631024013838,51556,313397,270990
1631024013848,51553,313439,270987
1631024013858,51560,313367,271009
1631024013868,51558,313368,271021
1631024013878,51558,313370,271001
1631024013888,51564,313348,271047
1631024013898,51564,313377,271037
1631024013908,51570,313379,271063
1631024013918,51563,313304,271080
1631024013928,51572,313351,271060
1631024013938,51585,313388,271048
1631024013948,51585,313389,271069
1631024013958,51597,313420,271091
1631024013968,51595,313376,271082
1631024013978,51595,313428,271075
1631024013988,51608,313464,271109
1631024013998,51630,313443,271105
1631024014008,51638,313455,271128
1631024014018,51628,313489,271140
1631024014028,51636,313527,271148
1631024014038,51642,313514,271170
1631024014048,51646,313519,271175
1631024014058,51659,313573,271228
1631024014068,51667,313587,271185
1631024014078,51682,313568,271234
1631024014088,51691,313583,271242
1631024014098,51697,313640,271268
1631024014108,51711,313712,271301
1631024014118,51721,313691,271311
1631024014128,51719,313688,271315
1631024014138,51728,313725,271339
1631024014148,51730,313743,271316
1631024014158,51742,313699,271311
1631024014168,51745,313694,271310
1631024014178,51750,313686,271306
1631024014188,51760,313706,271303
1631024014198,51762,313715,271289
1631024014208,51769,313746,271288
1631024014218,51771,313734,271281
1631024014228,51773,313726,271280
1631024014238,51775,313733,271268
1631024014248,51790,313750,271242
1631024014258,51807,313727,271233
1631024014268,51791,313799,271267
1631024014278,51809,313776,271259
1631024014288,51822,313827,271288
1631024014298,51821,313838,271264
1631024014308,51821,313867,271244
1631024014318,51837,313906,271270
1631024014328,51850,313889,271243
1631024014338,51849,313930,271251
1631024014348,51855,313907,271241
1631024014358,51850,313896,271174
1631024014368,51844,313879,271116
1631024014378,51847,313825,271104
1631024014388,51824,313769,271042
1631024014398,51806,313674,271011
1631024014408,51807,313624,270985
1631024014418,51785,313635,270954
1631024014428,51778,313576,270956
1631024014438,51768,313619,270959
1631024014448,51754,313569,270979
1631024014458,51747,313592,270943
1631024014468,51739,313551,270926
1631024014478,51737,313531,270942
1631024014488,51733,313579,270926
1631024014498,51744,313536,270929
1631024014508,51743,313525,270951
1631024014518,51735,313534,270950
1631024014528,51737,313544,270938
1631024014538,51742,313559,270925
1631024014548,51741,313558,270928
1631024014558,51748,313569,270973
1631024014568,51754,313559,270969
1631024014578,51759,313599,270966
1631024014588,51761,313575,271012
1631024014598,51767,313564,271007
1631024014608,51773,313573,270983
1631024014618,51765,313643,271011
1631024014628,51781,313643,271040
1631024014638,51775,313626,271014
1631024014648,51785,313654,271032
1631024014658,51799,313696,271051
1631024014668,51799,313686,271002
1631024014678,51786,313663,271015
1631024014688,51795,313681,271023
1631024014698,51791,313731,270995
1631024014708,51790,313700,271031
1631024014718,51811,313748,271056
1631024014728,51807,313784,271056
1631024014738,51807,313762,271037
1631024014748,51807,313800,271042
1631024014758,51807,313842,271083
1631024014768,51819,313815,271055
1631024014778,51823,313843,271077
1631024014788,51821,313867,271088
1631024014798,51829,313870,271087
1631024014808,51835,313919,271105
1631024014818,51843,313951,271117
1631024014828,51853,313906,271152
1631024014838,51861,313960,271137
1631024014848,51869,313980,271136
1631024014858,51879,314013,271144
1631024014868,51879,314023,271170
1631024014878,51875,314047,271188
1631024014888,51900,314021,271212
1631024014898,51904,314084,271185
1631024014908,51911,314106,271202
1631024014918,51906,314151,271238
1631024014928,51919,314190,271224
1631024014938,51941,314180,271247
1631024014948,51943,314222,271273
1631024014958,51952,314238,271248
1631024014968,51955,314215,271257
1631024014978,51948,314216,271223
1631024014988,51939,314153,271191
1631024014998,51929,314130,271163
1631024015008,51923,314060,271141
1631024015018,51905,314068,271115
1631024015028,51886,314017,271130
1631024015038,51883,314073,271116
1631024015048,51887,314013,271145
1631024015058,51884,313982,271148
1631024015068,51893,314029,271159
1631024015078,51881,314023,271182
1631024015088,51870,314011,271195
1631024015098,51869,314027,271183
1631024015108,51868,314023,271215
1631024015118,51867,314027,271217
1631024015128,51869,313998,271220
1631024015138,51868,314009,271253
1631024015148,51863,314025,271209
1631024015158,51876,314043,271259
1631024015168,51871,314003,271268
1631024015178,51879,314059,271289
1631024015188,51874,314072,271294
1631024015198,51897,314134,271302
1631024015208,51905,314128,271356
1631024015218,51912,314194,271382
1631024015228,51912,314144,271379
1631024015238,51917,314166,271365
1631024015248,51922,314189,271397
1631024015258,51925,314172,271403
1631024015268,51918,314181,271399
1631024015278,51930,314208,271409
1631024015288,51930,314221,271394
1631024015298,51930,314223,271399
1631024015308,51933,314231,271390
1631024015318,51928,314294,271408
1631024015328,51931,314255,271404
1631024015338,51935,314283,271378
1631024015348,51951,314279,271371
1631024015358,51954,314271,271405
1631024015368,51948,314343,271400
1631024015378,51957,314329,271385
1631024015388,51970,314321,271419
1631024015398,51977,314364,271400
1631024015408,51972,314342,271445
1631024015418,51985,314401,271412
1631024015428,51985,314374,271428
1631024015438,51990,314377,271434
1631024015448,51994,314387,271466
1631024015458,51998,314409,271447
1631024015468,52011,314485,271448
1631024015478,52014,314504,271467
1631024015488,52015,314518,271486
1631024015498,52031,314532,271475
1631024015508,52036,314580,271471
1631024015518,52030,314579,271478
1631024015528,52042,314601,271483
1631024015538,52067,314573,271494
1631024015548,52060,314573,271455
1631024015558,52062,314654,271513
1631024015568,52060,314647,271506
1631024015578,52081,314688,271481
1631024015588,52071,314688,271475
1631024015598,52064,314670,271481
1631024015608,52064,314624,271436
1631024015618,52053,314555,271385
1631024015628,52039,314544,271359
1631024015638,52026,314457,271317
1631024015648,52006,314433,271292
1631024015658,51988,314352,271238
1631024015668,51969,314405,271256
1631024015678,51959,314345,271281
1631024015688,51947,314334,271279
1631024015698,51953,314312,271259
1631024015708,51950,314354,271276
1631024015718,51936,314298,271281
1631024015728,51915,314279,271255
1631024015738,51922,314312,271232
1631024015748,51917,314263,271240
1631024015758,51910,314265,271219
1631024015768,51895,314266,271220
1631024015778,51899,314280,271247
1631024015788,51902,314282,271249
1631024015798,51898,314298,271240
1631024015808,51892,314287,271246
1631024015818,51885,314313,271251
1631024015828,51889,314294,271271
1631024015838,51894,314334,271284
1631024015848,51888,314366,271308
1631024015858,51906,314331,271332
1631024015868,51915,314379,271345
1631024015878,51910,314378,271302
1631024015888,51920,314371,271340
1631024015898,51920,314389,271327
1631024015908,51914,314362,271323
1631024015918,51916,314405,271329
1631024015928,51922,314386,271345
1631024015938,51924,314390,271354
1631024015948,51925,314394,271337
1631024015958,51921,314396,271331
1631024015968,51925,314422,271352
1631024015978,51931,314395,271357
1631024015988,51929,314440,271322
1631024015998,51946,314418,271334
1631024016008,51943,314455,271351
1631024016018,51937,314435,271363
1631024016028,51949,314473,271338
1631024016038,51955,314478,271312
1631024016048,51935,314527,271359
1631024016058,51955,314529,271309
1631024016068,51956,314536,271341
1631024016078,51947,314523,271335
1631024016088,51963,314568,271332
1631024016098,51963,314553,271324
1631024016108,51964,314607,271306
1631024016118,51968,314609,271317
1631024016128,51970,314580,271323
1631024016138,51972,314605,271312
1631024016148,51984,314635,271321
1631024016158,51983,314620,271281
1631024016168,51989,314625,271303
1631024016178,51998,314642,271256
1631024016188,51993,314637,271262
1631024016198,52006,314614,271241
1631024016208,52002,314609,271253
1631024016218,52011,314657,271215
1631024016228,52012,314650,271236
1631024016238,52015,314633,271206
1631024016248,52024,314613,271201
1631024016258,52018,314669,271185
1631024016268,52020,314601,271145
1631024016278,52020,314622,271120
1631024016288,52021,314587,271116
1631024016298,52003,314529,271076
1631024016308,51982,314442,271042
1631024016318,51979,314368,270993
1631024016328,51958,314321,270976
1631024016338,51926,314282,270947
1631024016348,51932,314215,270938
1631024016358,51912,314214,270919
1631024016368,51905,314215,270936
1631024016378,51901,314224,270937
1631024016388,51884,314209,270960
1631024016398,51894,314194,270934
1631024016408,51875,314200,270947
1631024016418,51882,314170,270965
1631024016428,51866,314185,270933
1631024016438,51860,314158,270972
1631024016448,51857,314106,271020
1631024016458,51856,314173,271015
1631024016468,51853,314136,271034
1631024016478,51845,314124,271012
1631024016488,51852,314136,271039
1631024016498,51855,314178,271089
1631024016508,51857,314186,271074
1631024016518,51845,314228,271099
1631024016528,51859,314229,271114
1631024016538,51856,314249,271120
1631024016548,51867,314238,271132
1631024016558,51855,314267,271138
1631024016568,51861,314256,271148
1631024016578,51866,314235,271149
1631024016588,51863,314300,271132
1631024016598,51868,314296,271148
1631024016608,51871,314293,271161
1631024016618,51867,314275,271194
1631024016628,51870,314279,271163
1631024016638,51879,314355,271190
1631024016648,51885,314296,271176
1631024016658,51901,314291,271219
1631024016668,51886,314349,271177
1631024016678,51902,314374,271210
1631024016688,51906,314364,271196
1631024016698,51898,314393,271221
1631024016708,51909,314379,271236
1631024016718,51912,314411,271224
1631024016728,51911,314391,271232
1631024016738,51909,314467,271237
1631024016748,51921,314440,271250
1631024016758,51923,314459,271262
1631024016768,51927,314473,271277
1631024016778,51933,314495,271275
1631024016788,51934,314483,271252
1631024016798,51936,314486,271257
1631024016808,51936,314476,271290
1631024016818,51944,314567,271270
1631024016828,51953,314577,271303
1631024016838,51960,314564,271312
1631024016848,51983,314605,271291
1631024016858,51975,314590,271313
1631024016868,51985,314626,271308
1631024016878,51991,314619,271354
1631024016888,51987,314661,271309
1631024016898,51992,314688,271355
1631024016908,52003,314674,271320
1631024016918,52015,314714,271341
1631024016928,52016,314676,271341
1631024016938,52023,314732,271357
1631024016948,52022,314697,271316
1631024016958,52014,314684,271325
1631024016968,52000,314618,271267
1631024016978,51984,314552,271250
1631024016988,51972,314517,271201
1631024016998,51952,314410,271192
1631024017008,51931,314437,271174
1631024017018,51903,314372,271174
1631024017028,51899,314336,271145
1631024017038,51874,314343,271179
1631024017048,51864,314297,271148
1631024017058,51850,314297,271182
1631024017068,51838,314272,271132
1631024017078,51827,314263,271168
1631024017088,51813,314217,271134
1631024017098,51803,314204,271101
1631024017108,51789,314249,271133
1631024017118,51782,314200,271100
1631024017128,51770,314145,271122
1631024017138,51760,314133,271108
1631024017148,51754,314080,271117
1631024017158,51750,314145,271099
1631024017168,51750,314094,271107
1631024017178,51739,314129,271121
1631024017188,51729,314116,271096
1631024017198,51726,314143,271101
1631024017208,51717,314116,271084
1631024017218,51712,314111,271068
1631024017228,51710,314128,271072
1631024017238,51709,314099,271068
1631024017248,51706,314132,271089
1631024017258,51696,314112,271077
1631024017268,51708,314135,271056
1631024017278,51699,314079,271066
1631024017288,51685,314079,271050
1631024017298,51682,314063,271052
1631024017308,51679,314103,271074
1631024017318,51700,314108,271049
1631024017328,51676,314101,271065
1631024017338,51677,314114,271025
1631024017348,51688,314125,271054
1631024017358,51685,314087,271055
1631024017368,51680,314127,271052
1631024017378,51680,314143,271076
1631024017388,51689,314119,271026
1631024017398,51681,314120,271034
1631024017408,51679,314103,271006
1631024017418,51691,314129,271019
1631024017428,51677,314143,271023
1631024017438,51682,314153,271029
1631024017448,51692,314148,271039
1631024017458,51697,314164,271034
1631024017468,51695,314154,271032
1631024017478,51703,314177,271038
1631024017488,51697,314181,271042
1631024017498,51700,314148,271038
1631024017508,51714,314186,271031
1631024017518,51705,314183,271020
1631024017528,51712,314196,271004
1631024017538,51713,314210,271019
1631024017548,51705,314212,271003
1631024017558,51703,314192,270978
1631024017568,51698,314159,270943
1631024017578,51683,314061,270895
1631024017588,51665,314036,270865
1631024017598,51635,313905,270823
1631024017608,51611,313857,270773
1631024017618,51583,313803,270767
1631024017628,51561,313764,270727
1631024017638,51535,313761,270730
1631024017648,51510,313643,270687
1631024017658,51504,313599,270720
1631024017668,51479,313585,270714
1631024017678,51459,313564,270658
1631024017688,51450,313527,270668
1631024017698,51418,313520,270678
1631024017708,51411,313492,270644
1631024017718,51387,313423,270655
1631024017728,51366,313427,270617
1631024017738,51362,313425,270604
1631024017748,51347,313361,270609
1631024017758,51324,313334,270614
1631024017768,51314,313326,270579
1631024017778,51308,313335,270601
1631024017788,51301,313336,270621
1631024017798,51300,313269,270590
1631024017808,51290,313303,270605
1631024017818,51288,313321,270610
1631024017828,51285,313304,270619
1631024017838,51273,313304,270609
1631024017848,51271,313312,270621
1631024017858,51264,313276,270642
1631024017868,51255,313296,270600
1631024017878,51248,313313,270616
1631024017888,51236,313301,270614
1631024017898,51236,313296,270592
1631024017908,51228,313301,270592
1631024017918,51231,313308,270639
1631024017928,51226,313310,270606
1631024017938,51224,313300,270633
1631024017948,51222,313297,270589
1631024017958,51224,313333,270629
1631024017968,51217,313349,270621
1631024017978,51217,313310,270640
1631024017988,51221,313296,270602
1631024017998,51215,313361,270631
1631024018008,51218,313347,270642
1631024018018,51214,313339,270615
1631024018028,51210,313302,270620
1631024018038,51219,313393,270625
1631024018048,51208,313356,270663
1631024018058,51214,313310,270624
1631024018068,51220,313416,270607
1631024018078,51213,313349,270641
1631024018088,51212,313403,270643
1631024018098,51224,313433,270650
1631024018108,51223,313430,270636
1631024018118,51236,313410,270645
1631024018128,51222,313464,270668
1631024018138,51234,313513,270669
1631024018148,51246,313482,270645
1631024018158,51247,313467,270660
1631024018168,51250,313494,270659
1631024018178,51242,313543,270688
1631024018188,51241,313490,270674
1631024018198,51236,313429,270617
1631024018208,51218,313395,270602
1631024018218,51199,313279,270549
1631024018228,51170,313243,270515
1631024018238,51146,313192,270504
1631024018248,51111,313140,270476
1631024018258,51075,313049,270440
1631024018268,51058,313006,270430
1631024018278,51034,313039,270421
1631024018288,51022,312976,270408
1631024018298,51004,312955,270455
1631024018308,50992,312933,270419
1631024018318,50991,312942,270462
1631024018328,50970,312892,270456
1631024018338,50953,312858,270452
1631024018348,50936,312888,270452
1631024018358,50931,312820,270434
1631024018368,50902,312812,270457
1631024018378,50893,312776,270458
1631024018388,50881,312789,270488
1631024018398,50874,312809,270470
1631024018408,50868,312771,270454
1631024018418,50868,312815,270508
1631024018428,50869,312825,270508
1631024018438,50870,312851,270530
1631024018448,50884,312847,270562
1631024018458,50876,312851,270567
1631024018468,50876,312872,270549
1631024018478,50885,312854,270619
1631024018488,50877,312887,270583
1631024018498,50880,312918,270584
1631024018508,50874,312874,270604
1631024018518,50881,312877,270638
1631024018528,50875,312885,270629
1631024018538,50882,312877,270657
1631024018548,50885,312940,270661
1631024018558,50889,312951,270681
1631024018568,50885,312986,270705
1631024018578,50897,312995,270716
1631024018588,50899,312998,270723
1631024018598,50899,313038,270748
1631024018608,50909,313018,270751
1631024018618,50915,313061,270755
1631024018628,50917,313065,270776
1631024018638,50929,313093,270803
1631024018648,50924,313080,270805
1631024018658,50937,313095,270809
1631024018668,50928,313153,270835
1631024018678,50939,313163,270840
1631024018688,50953,313180,270845
1631024018698,50957,313177,270863
1631024018708,50970,313220,270909
1631024018718,50965,313229,270899
1631024018728,50981,313262,270906
1631024018738,50989,313302,270935
1631024018748,50991,313277,270919
1631024018758,50994,313340,270943
1631024018768,51004,313341,270940
1631024018778,51009,313374,270911
1631024018788,51016,313369,270943
1631024018798,51024,313386,270948
1631024018808,51048,313443,270992
1631024018818,51044,313452,270985
1631024018828,51055,313512,271013
1631024018838,51051,313465,271024
1631024018848,51068,313538,271036
1631024018858,51073,313466,271035
1631024018868,51076,313473,271027
1631024018878,51093,313533,271010
1631024018888,51071,313466,270993
1631024018898,51070,313437,270945
1631024018908,51048,313331,270928
1631024018918,51021,313332,270893
1631024018928,51005,313257,270880
1631024018938,50989,313258,270889
1631024018948,50973,313186,270855
1631024018958,50966,313166,270858
1631024018968,50963,313148,270891
1631024018978,50938,313137,270884
1631024018988,50943,313110,270892
1631024018998,50931,313129,270912
1631024019008,50919,313168,270913
1631024019018,50912,313130,270908
1631024019028,50913,313158,270890
1631024019038,50904,313131,270905
1631024019048,50906,313060,270899
1631024019058,50905,313120,270930
1631024019068,50892,313104,270933
1631024019078,50899,313126,270952
1631024019088,50908,313114,270979
1631024019098,50910,313151,270977
1631024019108,50927,313169,271007
1631024019118,50913,313167,271034
1631024019128,50931,313223,271032
1631024019138,50924,313181,271047
1631024019148,50925,313208,271055
1631024019158,50935,313204,271064
1631024019168,50935,313219,271057
1631024019178,50936,313278,271101
1631024019188,50944,313237,271105
1631024019198,50949,313290,271122
1631024019208,50952,313284,271132
1631024019218,50956,313293,271123
1631024019228,50958,313315,271117
1631024019238,50965,313292,271131
1631024019248,50977,313335,271141
1631024019258,50974,313323,271144
1631024019268,50983,313354,271144
1631024019278,50982,313350,271143
1631024019288,50987,313336,271149
1631024019298,50999,313354,271145
1631024019308,51006,313344,271111
1631024019318,51005,313403,271160
1631024019328,51009,313402,271158
1631024019338,51017,313461,271176
1631024019348,51017,313481,271191
1631024019358,51036,313471,271180
1631024019368,51047,313467,271179
1631024019378,51049,313481,271195
1631024019388,51067,313507,271223
1631024019398,51070,313506,271225
1631024019408,51083,313547,271227
1631024019418,51087,313547,271226
1631024019428,51096,313562,271204
1631024019438,51110,313580,271257
1631024019448,51104,313613,271252
1631024019458,51117,313623,271261
1631024019468,51128,313633,271257
1631024019478,51128,313641,271276
1631024019488,51143,313649,271254
1631024019498,51161,313716,271274
1631024019508,51176,313730,271274
1631024019518,51186,313730,271290
1631024019528,51188,313726,271259
1631024019538,51193,313736,271294
1631024019548,51200,313719,271269
1631024019558,51197,313695,271225
1631024019568,51189,313682,271216
1631024019578,51181,313655,271186
1631024019588,51158,313555,271147
1631024019598,51147,313525,271119
1631024019608,51134,313502,271129
1631024019618,51129,313514,271110
1631024019628,51123,313472,271118
1631024019638,51107,313427,271104
1631024019648,51107,313405,271092
1631024019658,51102,313407,271111
1631024019668,51105,313432,271117
1631024019678,51102,313440,271117
1631024019688,51095,313419,271124
1631024019698,51092,313430,271126
1631024019708,51089,313378,271107
1631024019718,51092,313424,271141
1631024019728,51096,313395,271127
1631024019738,51100,313407,271114
1631024019748,51108,313405,271116
1631024019758,51107,313424,271164
1631024019768,51105,313455,271152
1631024019778,51117,313437,271173
1631024019788,51123,313478,271157
1631024019798,51127,313484,271182
1631024019808,51135,313496,271183
1631024019818,51147,313513,271194
1631024019828,51148,313500,271212
1631024019838,51154,313587,271189
1631024019848,51157,313509,271214
1631024019858,51162,313497,271213
1631024019868,51161,313577,271189
1631024019878,51161,313497,271170
1631024019888,51168,313527,271177
1631024019898,51184,313514,271194
1631024019908,51175,313594,271186
1631024019918,51195,313575,271186
1631024019928,51204,313585,271196
1631024019938,51210,313589,271224
1631024019948,51211,313556,271215
1631024019958,51213,313614,271200
1631024019968,51219,313603,271216
1631024019978,51226,313659,271234
1631024019988,51246,313650,271227
1631024019998,51248,313661,271223
1631024020008,51252,313699,271249
1631024020018,51250,313705,271244
1631024020028,51260,313708,271278
1631024020038,51274,313702,271267
1631024020048,51287,313736,271243
1631024020058,51293,313787,271260
1631024020068,51296,313811,271296
1631024020078,51317,313852,271293
1631024020088,51322,313855,271290
1631024020098,51329,313863,271328
1631024020108,51343,313873,271295
1631024020118,51351,313891,271322
1631024020128,51356,313937,271339
1631024020138,51365,313919,271332
1631024020148,51376,313962,271332
1631024020158,51388,313969,271354
1631024020168,51399,313994,271379
1631024020178,51405,313996,271333
1631024020188,51421,314030,271346
1631024020198,51431,314031,271373
1631024020208,51445,314065,271370
1631024020218,51454,314066,271413
1631024020228,51460,314099,271361
1631024020238,51472,314075,271337
1631024020248,51473,314039,271301
1631024020258,51456,314041,271299
1631024020268,51449,313966,271240
1631024020278,51434,313885,271233
1631024020288,51436,313899,271182
1631024020298,51421,313832,271176
1631024020308,51411,313797,271173
1631024020318,51413,313827,271169
1631024020328,51415,313840,271170
1631024020338,51409,313796,271175
1631024020348,51419,313853,271207
1631024020358,51415,313837,271181
1631024020368,51420,313807,271192
1631024020378,51424,313814,271164
1631024020388,51427,313807,271200
1631024020398,51426,313827,271179
1631024020408,51421,313818,271172
1631024020418,51427,313819,271207
1631024020428,51438,313855,271223
1631024020438,51438,313816,271209
1631024020448,51439,313894,271208
1631024020458,51451,313881,271230
1631024020468,51453,313858,271209
1631024020478,51461,313938,271279
1631024020488,51480,313912,271310
1631024020498,51479,313949,271275
1631024020508,51488,313947,271306
1631024020518,51497,313991,271296
1631024020528,51499,314023,271327
1631024020538,51519,313976,271335
1631024020548,51532,313983,271317
1631024020558,51528,314021,271342
1631024020568,51537,313975,271298
1631024020578,51541,314038,271322
1631024020588,51552,314058,271283
1631024020598,51554,314056,271334
1631024020608,51567,314059,271362
1631024020618,51569,314120,271334
1631024020628,51569,314095,271322
1631024020638,51580,314111,271354
1631024020648,51587,314135,271343
1631024020658,51593,314177,271341
1631024020668,51599,314150,271375
1631024020678,51612,314227,271357
1631024020688,51625,314173,271395
1631024020698,51623,314248,271417
1631024020708,51658,314198,271391
1631024020718,51655,314222,271384
1631024020728,51662,314234,271387
1631024020738,51660,314269,271413
1631024020748,51693,314291,271437
1631024020758,51682,314312,271416
1631024020768,51700,314278,271438
1631024020778,51706,314356,271439
1631024020788,51706,314362,271426
1631024020798,51713,314394,271454
1631024020808,51732,314398,271440
1631024020818,51741,314429,271475
1631024020828,51752,314422,271476
1631024020838,51760,314466,271453
1631024020848,51769,314463,271446
1631024020858,51774,314535,271472
1631024020868,51797,314516,271466
1631024020878,51795,314525,271500
1631024020888,51818,314568,271493
1631024020898,51826,314555,271469
1631024020908,51836,314567,271497
1631024020918,51838,314570,271498
1631024020928,51847,314596,271509
1631024020938,51853,314624,271524
1631024020948,51866,314666,271512
1631024020958,51875,314668,271541
1631024020968,51882,314695,271547
1631024020978,51885,314682,271534
1631024020988,51914,314714,271527
1631024020998,51913,314699,271523
1631024021008,51912,314682,271505
1631024021018,51901,314664,271473
1631024021028,51918,314646,271444
1631024021038,51908,314563,271397
1631024021048,51905,314523,271370
1631024021058,51891,314542,271383
1631024021068,51879,314513,271386
1631024021078,51886,314476,271365
1631024021088,51885,314480,271353
1631024021098,51881,314509,271351
1631024021108,51881,314500,271382
1631024021118,51887,314499,271383
1631024021128,51888,314480,271370
1631024021138,51882,314469,271386
1631024021148,51881,314451,271368
1631024021158,51885,314446,271358
1631024021168,51878,314443,271384
1631024021178,51878,314442,271370
1631024021188,51888,314448,271393
1631024021198,51874,314423,271369
1631024021208,51894,314418,271364
1631024021218,51895,314455,271369
1631024021228,51895,314423,271378
1631024021238,51890,314477,271353
1631024021248,51896,314482,271365
1631024021258,51890,314472,271400
1631024021268,51897,314422,271392
1631024021278,51898,314473,271374
1631024021288,51898,314466,271401
1631024021298,51889,314482,271350
1631024021308,51896,314454,271365
1631024021318,51892,314451,271324
1631024021328,51892,314491,271326
1631024021338,51899,314477,271313
1631024021348,51902,314526,271352
1631024021358,51899,314487,271317
1631024021368,51912,314440,271300
1631024021378,51904,314489,271357
1631024021388,51916,314462,271305
1631024021398,51904,314469,271318
1631024021408,51912,314486,271343
1631024021418,51908,314511,271323
1631024021428,51911,314478,271328
1631024021438,51910,314482,271336
1631024021448,51915,314493,271327
1631024021458,51910,314494,271346
1631024021468,51925,314523,271315
1631024021478,51916,314543,271323
1631024021488,51932,314549,271315
1631024021498,51937,314530,271297
1631024021508,51936,314550,271325
1631024021518,51930,314539,271304
1631024021528,51947,314586,271315
1631024021538,51949,314606,271316
1631024021548,51959,314619,271321
1631024021558,51955,314629,271340
1631024021568,51964,314612,271317
1631024021578,51955,314607,271319
1631024021588,51961,314586,271296
1631024021598,51968,314616,271311
1631024021608,51971,314633,271345
1631024021618,51975,314668,271305
1631024021628,51979,314662,271336
1631024021638,51983,314668,271330
1631024021648,51980,314663,271337
1631024021658,51993,314680,271321
1631024021668,51993,314670,271311
1631024021678,52010,314691,271321
1631024021688,52013,314740,271315
1631024021698,52014,314718,271308
1631024021708,52016,314710,271279
1631024021718,52003,314622,271281
1631024021728,52006,314639,271243
1631024021738,51989,314586,271198
1631024021748,51970,314508,271146
1631024021758,51954,314481,271111
1631024021768,51936,314424,271093
1631024021778,51929,314358,271092
1631024021788,51907,314362,271066
1631024021798,51902,314332,271084
1631024021808,51888,314306,271055
1631024021818,51874,314305,271007
1631024021828,51866,314255,271046
1631024021838,51850,314209,271059
1631024021848,51848,314221,271027
1631024021858,51838,314184,271038
1631024021868,51827,314127,271025
1631024021878,51809,314141,271004
1631024021888,51808,314084,271023
1631024021898,51789,314114,271004
1631024021908,51783,314049,270961
1631024021918,51768,314035,271000
1631024021928,51770,314060,270963
1631024021938,51761,314054,270994
1631024021948,51755,314041,270982
1631024021958,51754,314076,270952
1631024021968,51752,314059,270971
1631024021978,51753,314053,270985
1631024021988,51747,314042,270947
1631024021998,51740,314028,270961
1631024022008,51739,314037,270965
1631024022018,51729,314029,270953
1631024022028,51716,314015,270947
1631024022038,51730,313995,270960
1631024022048,51724,314017,270969
1631024022058,51717,314002,270974
1631024022068,51710,313977,270959
1631024022078,51707,313989,270936
1631024022088,51702,314019,270952
1631024022098,51709,313993,270932
1631024022108,51703,314038,270932
1631024022118,51696,314000,270951
1631024022128,51693,314025,270952
1631024022138,51696,314018,270950
1631024022148,51699,314000,270955
1631024022158,51708,314019,270963
1631024022168,51713,314041,270956
1631024022178,51703,313998,270964
1631024022188,51700,314035,270961
1631024022198,51691,314048,270997
1631024022208,51712,314035,270987
1631024022218,51703,314046,270977
1631024022228,51705,314090,270976
1631024022238,51705,314030,270967
1631024022248,51705,314047,270944
1631024022258,51716,314103,270989
1631024022268,51717,314088,270987
1631024022278,51702,314096,270969
1631024022288,51709,314074,270973
1631024022298,51718,314090,271002
1631024022308,51713,314094,270980
1631024022318,51727,314076,270981
1631024022328,51724,314153,270982
1631024022338,51721,314121,270987
1631024022348,51727,314148,271002
1631024022358,51725,314154,270992
1631024022368,51743,314146,271013
1631024022378,51731,314124,271003
1631024022388,51739,314197,271004
1631024022398,51740,314199,271028
1631024022408,51742,314208,271000
1631024022418,51748,314196,271028
1631024022428,51749,314224,271008
1631024022438,51762,314266,271004
1631024022448,51763,314249,271032
1631024022458,51761,314269,271004
1631024022468,51764,314241,270986
1631024022478,51766,314228,270996
1631024022488,51737,314166,270941
1631024022498,51718,314084,270922
1631024022508,51703,314017,270856
1631024022518,51685,313932,270841
1631024022528,51671,313914,270812
1631024022538,51644,313862,270821
1631024022548,51626,313836,270786
1631024022558,51606,313806,270791
1631024022568,51579,313736,270796
1631024022578,51575,313750,270811
1631024022588,51568,313725,270806
1631024022598,51544,313665,270823
1631024022608,51525,313704,270810
1631024022618,51510,313611,270795
1631024022628,51498,313623,270779
1631024022638,51483,313581,270786
1631024022648,51466,313567,270773
1631024022658,51456,313543,270787
1631024022668,51444,313564,270798
1631024022678,51430,313558,270774
1631024022688,51414,313526,270822
1631024022698,51409,313525,270812
1631024022708,51400,313508,270814
1631024022718,51393,313549,270814
1631024022728,51399,313556,270844
1631024022738,51396,313532,270831
1631024022748,51378,313552,270881
1631024022758,51389,313568,270838
1631024022768,51374,313534,270835
1631024022778,51366,313567,270848
1631024022788,51353,313567,270832
1631024022798,51352,313545,270858
1631024022808,51357,313533,270853
1631024022818,51340,313553,270874
1631024022828,51352,313561,270896
1631024022838,51338,313550,270896
1631024022848,51327,313529,270891
1631024022858,51325,313543,270909
1631024022868,51322,313549,270906
1631024022878,51322,313593,270887
1631024022888,51317,313548,270902
1631024022898,51314,313580,270920
1631024022908,51306,313570,270922
1631024022918,51310,313589,270930
1631024022928,51309,313614,270946
1631024022938,51305,313622,270966
1631024022948,51309,313600,270944
1631024022958,51315,313621,270964
1631024022968,51314,313675,270995
1631024022978,51302,313613,270978
1631024022988,51307,313679,270983
1631024022998,51317,313710,271003
1631024023008,51323,313708,271020
1631024023018,51321,313723,271019
1631024023028,51334,313695,271024
1631024023038,51325,313744,271032
1631024023048,51323,313773,271046
1631024023058,51322,313744,271033
1631024023068,51325,313767,271069
1631024023078,51324,313773,271076
1631024023088,51339,313799,271043
1631024023098,51336,313815,271078
1631024023108,51342,313832,271113
1631024023118,51350,313907,271113
1631024023128,51362,313876,271113
1631024023138,51359,313887,271173
1631024023148,51361,313914,271142
1631024023158,51372,313891,271142
1631024023168,51367,313937,271176
1631024023178,51375,313974,271187
1631024023188,51388,313997,271202
1631024023198,51378,313966,271203
1631024023208,51391,314022,271213
1631024023218,51399,314026,271196
1631024023228,51404,314000,271236
1631024023238,51410,314034,271242
1631024023248,51409,314043,271241
1631024023258,51414,314075,271212
1631024023268,51413,314053,271180
1631024023278,51393,313993,271191
1631024023288,51385,313943,271142
1631024023298,51348,313896,271115
1631024023308,51339,313845,271075
1631024023318,51306,313818,271069
1631024023328,51278,313765,271080
1631024023338,51264,313709,271087
1631024023348,51250,313716,271067
1631024023358,51239,313677,271100
1631024023368,51214,313689,271095
1631024023378,51203,313613,271097
1631024023388,51185,313647,271094
1631024023398,51192,313576,271087
1631024023408,51166,313565,271094
1631024023418,51148,313612,271088
1631024023428,51133,313598,271107
1631024023438,51124,313600,271087
1631024023448,51105,313566,271113
1631024023458,51106,313533,271112
1631024023468,51103,313561,271109
1631024023478,51094,313533,271111
1631024023488,51074,313542,271135
1631024023498,51081,313594,271137
1631024023508,51077,313572,271173
1631024023518,51078,313574,271167
1631024023528,51074,313567,271180
1631024023538,51064,313615,271177
1631024023548,51068,313571,271199
1631024023558,51057,313616,271189
1631024023568,51053,313585,271158
1631024023578,51045,313592,271199
1631024023588,51047,313558,271233
1631024023598,51048,313563,271203
1631024023608,51046,313662,271213
1631024023618,51062,313609,271209
1631024023628,51036,313593,271234
1631024023638,51031,313609,271242
1631024023648,51034,313636,271226
1631024023658,51042,313659,271251
1631024023668,51039,313657,271235
1631024023678,51030,313636,271252
1631024023688,51033,313644,271223
1631024023698,51027,313670,271254
1631024023708,51030,313682,271304
1631024023718,51036,313724,271279
1631024023728,51041,313731,271284
1631024023738,51038,313721,271323
1631024023748,51040,313730,271289
1631024023758,51049,313745,271362
1631024023768,51049,313751,271331
1631024023778,51042,313769,271327
1631024023788,51062,313782,271312
1631024023798,51066,313746,271330
1631024023808,51059,313785,271353
1631024023818,51063,313784,271354
1631024023828,51074,313783,271368
1631024023838,51068,313832,271361
1631024023848,51078,313856,271359
1631024023858,51078,313801,271360
1631024023868,51084,313871,271359
1631024023878,51095,313880,271387
1631024023888,51102,313904,271421
1631024023898,51105,313953,271378
1631024023908,51108,313940,271397
1631024023918,51116,313935,271422
1631024023928,51124,313973,271407
1631024023938,51134,313958,271409
1631024023948,51139,313953,271450
1631024023958,51139,314004,271401
1631024023968,51143,313957,271444
1631024023978,51135,314008,271396
1631024023988,51132,313931,271362
1631024023998,51122,313905,271354
1631024024008,51094,313820,271281
1631024024018,51068,313761,271254
1631024024028,51049,313706,271227
1631024024038,51038,313685,271226
1631024024048,51018,313668,271214
1631024024058,51007,313628,271239
1631024024068,50994,313647,271222
1631024024078,50983,313628,271231
1631024024088,50978,313573,271209
1631024024098,50962,313626,271218
1631024024108,50973,313608,271240
1631024024118,50956,313539,271235
1631024024128,50959,313534,271232
1631024024138,50947,313552,271244
1631024024148,50933,313557,271235
1631024024158,50934,313543,271231
1631024024168,50923,313523,271241
1631024024178,50922,313503,271254
1631024024188,50918,313527,271265
1631024024198,50923,313553,271283
1631024024208,50919,313547,271307
1631024024218,50919,313554,271280
1631024024228,50932,313530,271309
1631024024238,50932,313585,271306
1631024024248,50939,313597,271337
1631024024258,50952,313607,271314
1631024024268,50954,313557,271331
1631024024278,50958,313593,271323
1631024024288,50959,313589,271351
1631024024298,50956,313639,271329
1631024024308,50946,313628,271344
1631024024318,50963,313620,271354
1631024024328,50965,313607,271353
1631024024338,50960,313603,271350
1631024024348,50958,313613,271372
1631024024358,50964,313684,271388
1631024024368,50969,313667,271349
1631024024378,50976,313650,271379
1631024024388,50984,313678,271386
1631024024398,50983,313684,271352
1631024024408,50987,313731,271384
1631024024418,50993,313668,271411
1631024024428,51016,313742,271405
1631024024438,51011,313738,271426
1631024024448,51019,313769,271422
1631024024458,51031,313782,271425
1631024024468,51043,313784,271406
1631024024478,51049,313777,271450
1631024024488,51053,313781,271422
1631024024498,51060,313831,271427
1631024024508,51058,313807,271457
1631024024518,51068,313828,271432
1631024024528,51077,313880,271443
1631024024538,51081,313877,271455
1631024024548,51088,313859,271476
1631024024558,51103,313921,271455
1631024024568,51111,313935,271486
1631024024578,51115,313946,271493
1631024024588,51135,313949,271491
1631024024598,51149,313992,271485
1631024024608,51144,313977,271508
1631024024618,51165,314031,271525
1631024024628,51177,314048,271488
1631024024638,51173,314041,271503
1631024024648,51188,314072,271498
1631024024658,51186,314095,271528
1631024024668,51197,314070,271514
1631024024678,51210,314109,271544
1631024024688,51214,314083,271535
1631024024698,51226,314097,271520
1631024024708,51236,314185,271540
1631024024718,51244,314167,271532
1631024024728,51258,314161,271516
1631024024738,51264,314180,271532
1631024024748,51255,314170,271512
1631024024758,51258,314151,271465
1631024024768,51256,314131,271432
1631024024778,51249,314041,271409
1631024024788,51238,313979,271399
1631024024798,51221,313988,271388
1631024024808,51208,313967,271372
1631024024818,51202,313896,271361
1631024024828,51196,313910,271363
1631024024838,51193,313897,271351
1631024024848,51190,313882,271356
1631024024858,51192,313915,271369
1631024024868,51204,313881,271390
1631024024878,51201,313918,271393
1631024024888,51200,313909,271345
1631024024898,51192,313875,271344
1631024024908,51198,313880,271369
1631024024918,51193,313855,271331
1631024024928,51182,313848,271360
1631024024938,51190,313817,271342
1631024024948,51178,313843,271359
1631024024958,51190,313808,271376
1631024024968,51183,313918,271381
1631024024978,51193,313882,271367
1631024024988,51208,313898,271393
1631024024998,51211,313898,271363
1631024025008,51216,313907,271420
1631024025018,51219,313960,271409
1631024025028,51222,313938,271404
1631024025038,51235,313957,271398
1631024025048,51231,313939,271403
1631024025058,51233,313969,271402
1631024025068,51239,313966,271397
1631024025078,51269,313978,271399
1631024025088,51272,313993,271431
1631024025098,51273,313991,271382
1631024025108,51287,314009,271429
1631024025118,51288,314013,271426
1631024025128,51300,314011,271427
1631024025138,51299,314030,271449
1631024025148,51302,314046,271451
1631024025158,51322,314083,271410
1631024025168,51335,314056,271435
1631024025178,51333,314142,271475
1631024025188,51343,314152,271467
1631024025198,51360,314097,271504
1631024025208,51361,314144,271499
1631024025218,51371,314141,271480
1631024025228,51382,314162,271465
1631024025238,51390,314169,271504
1631024025248,51397,314197,271512
1631024025258,51402,314207,271523
1631024025268,51416,314220,271521
1631024025278,51427,314242,271513
1631024025288,51442,314270,271534
1631024025298,51451,314304,271540
1631024025308,51448,314297,271555
1631024025318,51461,314373,271523
1631024025328,51470,314342,271533
1631024025338,51482,314352,271541
1631024025348,51492,314374,271555
1631024025358,51505,314408,271550
1631024025368,51513,314447,271552
1631024025378,51533,314388,271573
1631024025388,51542,314439,271580
1631024025398,51548,314453,271589
1631024025408,51566,314441,271609
1631024025418,51567,314522,271620
1631024025428,51584,314528,271620
1631024025438,51592,314553,271568
1631024025448,51597,314565,271622
1631024025458,51620,314588,271599
1631024025468,51634,314624,271629
1631024025478,51638,314616,271614
1631024025488,51653,314617,271625
1631024025498,51657,314635,271625
1631024025508,51666,314692,271652
1631024025518,51678,314712,271667
1631024025528,51683,314673,271655
1631024025538,51688,314686,271637
1631024025548,51699,314735,271640
1631024025558,51709,314718,271642
1631024025568,51703,314714,271607
1631024025578,51709,314662,271584
1631024025588,51712,314602,271534
1631024025598,51704,314609,271508
1631024025608,51697,314598,271491
1631024025618,51700,314580,271484
1631024025628,51696,314540,271515
1631024025638,51694,314510,271471
1631024025648,51695,314508,271477
1631024025658,51698,314503,271511
1631024025668,51703,314552,271506
1631024025678,51706,314506,271477
1631024025688,51713,314509,271490
1631024025698,51705,314500,271486
1631024025708,51705,314533,271507
1631024025718,51730,314496,271499
1631024025728,51728,314480,271502
1631024025738,51723,314439,271496
1631024025748,51736,314529,271474
1631024025758,51726,314499,271463
1631024025768,51732,314466,271509
1631024025778,51733,314458,271479
1631024025788,51742,314476,271511
1631024025798,51744,314513,271522
1631024025808,51749,314522,271520
1631024025818,51745,314548,271521
1631024025828,51749,314545,271516
1631024025838,51765,314531,271503
1631024025848,51761,314545,271539
1631024025858,51763,314549,271474
1631024025868,51776,314542,271499
1631024025878,51774,314569,271496
1631024025888,51791,314577,271492
1631024025898,51802,314600,271506
1631024025908,51797,314629,271503
1631024025918,51809,314564,271516
1631024025928,51811,314588,271523
1631024025938,51822,314603,271504
1631024025948,51816,314570,271486
1631024025958,51822,314632,271509
1631024025968,51825,314591,271510
1631024025978,51832,314629,271491
1631024025988,51844,314616,271495
1631024025998,51847,314671,271516
1631024026008,51844,314656,271546
1631024026018,51854,314668,271492
1631024026028,51853,314662,271530
1631024026038,51868,314671,271498
1631024026048,51868,314718,271500
1631024026058,51881,314741,271504
1631024026068,51886,314740,271502
1631024026078,51885,314769,271507
1631024026088,51899,314729,271523
1631024026098,51901,314763,271471
1631024026108,51900,314773,271468
1631024026118,51911,314732,271493
1631024026128,51914,314741,271485
1631024026138,51918,314773,271507
1631024026148,51929,314767,271483
1631024026158,51936,314793,271494
1631024026168,51939,314749,271516
1631024026178,51953,314814,271477
1631024026188,51954,314852,271477
1631024026198,51967,314834,271518
1631024026208,51974,314845,271484
1631024026218,51985,314837,271496
1631024026228,51988,314840,271459
1631024026238,51980,314869,271476
1631024026248,51999,314926,271508
1631024026258,51998,314912,271508
1631024026268,52014,314895,271493
1631024026278,52009,314894,271486
1631024026288,52005,314922,271480
1631024026298,52024,314939,271477
1631024026308,52024,314930,271493
1631024026318,52034,314943,271478
1631024026328,52040,314971,271465
1631024026338,52045,314948,271450
1631024026348,52039,314940,271430
1631024026358,52027,314866,271397
1631024026368,52036,314831,271366
1631024026378,52021,314814,271343
1631024026388,52006,314765,271293
1631024026398,51994,314738,271293
1631024026408,52003,314721,271253
1631024026418,51982,314680,271238
1631024026428,51978,314652,271270
1631024026438,51964,314614,271240
1631024026448,51978,314626,271239
1631024026458,51961,314586,271250
1631024026468,51971,314573,271236
1631024026478,51967,314564,271242
1631024026488,51955,314563,271177
1631024026498,51949,314529,271205
1631024026508,51946,314528,271221
1631024026518,51944,314589,271187
1631024026528,51943,314505,271168
1631024026538,51935,314488,271190
1631024026548,51929,314529,271203
1631024026558,51922,314469,271183
1631024026568,51935,314461,271188
1631024026578,51934,314461,271166
1631024026588,51940,314474,271167
1631024026598,51939,314469,271179
1631024026608,51926,314465,271168
1631024026618,51929,314523,271163
1631024026628,51925,314492,271170
1631024026638,51929,314493,271168
1631024026648,51919,314526,271158
1631024026658,51918,314492,271138
1631024026668,51913,314470,271112
1631024026678,51913,314450,271127
1631024026688,51933,314445,271144
1631024026698,51928,314449,271118
1631024026708,51927,314491,271120
1631024026718,51931,314461,271113
1631024026728,51921,314447,271150
1631024026738,51930,314455,271127
1631024026748,51931,314454,271113
1631024026758,51939,314442,271116
1631024026768,51929,314463,271085
1631024026778,51925,314488,271128
1631024026788,51929,314453,271119
1631024026798,51938,314478,271125
1631024026808,51937,314464,271092
1631024026818,51940,314487,271119
1631024026828,51941,314520,271116
1631024026838,51938,314509,271121
1631024026848,51945,314518,271119
1631024026858,51958,314524,271155
1631024026868,51958,314560,271113
1631024026878,51964,314582,271106
1631024026888,51971,314574,271094
1631024026898,51968,314517,271123
1631024026908,51979,314556,271110
1631024026918,51963,314574,271120
1631024026928,51970,314595,271106
1631024026938,51972,314573,271124
1631024026948,51978,314591,271102
1631024026958,51977,314593,271119
1631024026968,52003,314637,271094
1631024026978,51992,314620,271082
1631024026988,51999,314642,271092
1631024026998,52005,314648,271116
1631024027008,52005,314645,271124
1631024027018,52014,314656,271126
1631024027028,52019,314641,271117
1631024027038,52023,314672,271122
1631024027048,52042,314668,271126
1631024027058,52032,314742,271085
1631024027068,52038,314717,271108
1631024027078,52045,314709,271122
1631024027088,52043,314735,271108
1631024027098,52042,314714,271105
1631024027108,52051,314705,271067
1631024027118,52035,314656,271040
1631024027128,52025,314659,271039
1631024027138,52021,314581,270986
1631024027148,52000,314491,270934
1631024027158,51979,314433,270912
1631024027168,51961,314437,270873
1631024027178,51944,314386,270893
1631024027188,51938,314359,270874
1631024027198,51930,314259,270848
1631024027208,51904,314252,270831
1631024027218,51914,314233,270824
1631024027228,51888,314256,270830
1631024027238,51868,314238,270842
1631024027248,51862,314187,270866
1631024027258,51850,314139,270838
1631024027268,51833,314115,270798
1631024027278,51821,314092,270816
1631024027288,51802,314066,270791
1631024027298,51790,314060,270772
1631024027308,51781,314062,270764
1631024027318,51766,314032,270780
1631024027328,51757,314001,270769
1631024027338,51766,314003,270769
1631024027348,51738,314028,270798
1631024027358,51754,313998,270787
1631024027368,51737,314007,270772
1631024027378,51737,313980,270805
1631024027388,51736,313986,270774
1631024027398,51728,313996,270771
1631024027408,51714,314015,270805
1631024027418,51716,313982,270809
1631024027428,51701,314004,270793
1631024027438,51694,313953,270813
1631024027448,51693,313907,270784
1631024027458,51684,313940,270781
1631024027468,51680,313961,270800
1631024027478,51678,313934,270806
1631024027488,51669,313938,270797
1631024027498,51681,313940,270822
1631024027508,51653,313955,270829
1631024027518,51668,313926,270825
1631024027528,51670,313988,270823
1631024027538,51667,313982,270843
1631024027548,51658,313952,270811
1631024027558,51653,313983,270846
1631024027568,51647,314019,270847
1631024027578,51648,313981,270864
1631024027588,51646,313982,270843
1631024027598,51639,313995,270864
1631024027608,51648,313971,270860
1631024027618,51647,314004,270892
1631024027628,51640,314004,270882
1631024027638,51642,314030,270876
1631024027648,51652,314027,270891
1631024027658,51647,314064,270927
1631024027668,51660,314051,270917
1631024027678,51664,314049,270890
1631024027688,51657,314113,270904
1631024027698,51659,314079,270942
1631024027708,51664,314102,270935
1631024027718,51666,314108,270941
1631024027728,51666,314145,270939
1631024027738,51665,314153,270983
1631024027748,51680,314153,271001
1631024027758,51680,314162,270973
1631024027768,51677,314151,270978
1631024027778,51698,314155,270987
1631024027788,51696,314169,270977
1631024027798,51698,314193,270998
1631024027808,51691,314204,271025
1631024027818,51697,314242,271017
1631024027828,51699,314204,271012
1631024027838,51697,314238,271013
1631024027848,51712,314229,271011
1631024027858,51724,314241,271069
1631024027868,51720,314261,271071
1631024027878,51731,314306,271061
1631024027888,51720,314332,271054
1631024027898,51724,314346,271089
1631024027908,51729,314316,271081
1631024027918,51724,314353,271034
1631024027928,51718,314249,271069
1631024027938,51698,314226,270982
1631024027948,51688,314197,270956
1631024027958,51657,314136,270917
1631024027968,51630,314016,270909
1631024027978,51605,313998,270888
1631024027988,51593,313932,270855
1631024027998,51562,313920,270840
1631024028008,51545,313903,270806
1631024028018,51530,313879,270837
1631024028028,51505,313791,270825
1631024028038,51489,313788,270850
1631024028048,51474,313785,270838
1631024028058,51450,313756,270826
1631024028068,51442,313714,270818
1631024028078,51423,313644,270835
1631024028088,51394,313682,270848
1631024028098,51380,313615,270847
1631024028108,51362,313628,270836
1631024028118,51350,313606,270845
1631024028128,51332,313611,270826
1631024028138,51317,313638,270853
1631024028148,51309,313602,270902
1631024028158,51283,313627,270875
1631024028168,51293,313617,270860
1631024028178,51286,313587,270902
1631024028188,51286,313643,270923
1631024028198,51270,313645,270963
1631024028208,51262,313663,270959
1631024028218,51255,313638,270984
1631024028228,51244,313667,270993
1631024028238,51236,313645,270971
1631024028248,51230,313644,270969
1631024028258,51225,313650,270974
1631024028268,51209,313607,270979
1631024028278,51203,313662,270994
1631024028288,51194,313635,271028
1631024028298,51187,313665,271024
1631024028308,51184,313656,271030
1631024028318,51195,313685,271058
1631024028328,51189,313706,271054
1631024028338,51186,313693,271046
1631024028348,51176,313671,271063
1631024028358,51173,313688,271060
1631024028368,51181,313713,271075
1631024028378,51168,313705,271078
1631024028388,51164,313683,271110
1631024028398,51159,313734,271108
1631024028408,51157,313738,271091
1631024028418,51157,313747,271109
1631024028428,51153,313721,271126
1631024028438,51152,313749,271132
1631024028448,51158,313724,271164
1631024028458,51159,313802,271150
1631024028468,51157,313767,271174
1631024028478,51162,313808,271166
1631024028488,51159,313819,271162
1631024028498,51166,313805,271164
1631024028508,51160,313857,271174
1631024028518,51158,313825,271206
1631024028528,51169,313830,271192
1631024028538,51166,313896,271182
1631024028548,51160,313873,271225
1631024028558,51154,313845,271228
1631024028568,51168,313853,271244
1631024028578,51174,313935,271236
1631024028588,51168,313877,271242
1631024028598,51170,313912,271236
1631024028608,51177,313961,271214
1631024028618,51175,313939,271265
1631024028628,51190,313957,271264
1631024028638,51188,313963,271258
1631024028648,51187,313979,271279
1631024028658,51193,313972,271265
1631024028668,51185,313961,271241
1631024028678,51176,313949,271201
1631024028688,51136,313872,271172
1631024028698,51127,313804,271122
1631024028708,51097,313782,271121
1631024028718,51073,313701,271087
1631024028728,51053,313644,271091
1631024028738,51020,313635,271067
1631024028748,51005,313645,271056
1631024028758,50990,313580,271078
1631024028768,50966,313595,271085
1631024028778,50958,313514,271071
1631024028788,50941,313554,271103
1631024028798,50933,313499,271079
1631024028808,50923,313550,271083
1631024028818,50903,313488,271077
1631024028828,50898,313473,271114
1631024028838,50882,313441,271104
1631024028848,50873,313443,271113
1631024028858,50869,313461,271107
1631024028868,50847,313438,271144
1631024028878,50842,313438,271100
1631024028888,50825,313482,271141
1631024028898,50831,313483,271129
1631024028908,50830,313445,271166
1631024028918,50828,313470,271214
1631024028928,50829,313454,271203
1631024028938,50824,313463,271209
1631024028948,50826,313478,271160
1631024028958,50833,313484,271231
1631024028968,50834,313458,271244
1631024028978,50827,313496,271219
1631024028988,50825,313462,271230
1631024028998,50819,313497,271211
1631024029008,50821,313429,271217
1631024029018,50816,313522,271242
1631024029028,50810,313498,271245
1631024029038,50815,313471,271240
1631024029048,50814,313517,271273
1631024029058,50811,313500,271283
1631024029068,50810,313482,271240
1631024029078,50808,313529,271259
1631024029088,50829,313508,271320
1631024029098,50815,313525,271312
1631024029108,50822,313568,271304
1631024029118,50834,313572,271293
1631024029128,50841,313547,271293
1631024029138,50844,313549,271321
1631024029148,50840,313601,271345
1631024029158,50848,313574,271343
1631024029168,50848,313603,271345
1631024029178,50858,313615,271349
1631024029188,50858,313618,271329
1631024029198,50861,313617,271350
1631024029208,50871,313676,271342
1631024029218,50883,313676,271401
1631024029228,50888,313702,271395
1631024029238,50894,313693,271389
1631024029248,50903,313727,271398
1631024029258,50912,313732,271402
1631024029268,50916,313733,271411
1631024029278,50918,313747,271418
1631024029288,50934,313765,271447
1631024029298,50945,313770,271440
1631024029308,50952,313814,271441
1631024029318,50960,313814,271459
1631024029328,50962,313812,271493
1631024029338,50974,313825,271473
1631024029348,50971,313851,271447
1631024029358,50980,313876,271504
1631024029368,50991,313928,271471
1631024029378,50993,313921,271479
1631024029388,51004,313859,271476
1631024029398,51019,313933,271496
1631024029408,51027,313963,271498
1631024029418,51025,313988,271480
1631024029428,51032,313960,271469
1631024029438,51049,313957,271438
1631024029448,51023,313915,271444
1631024029458,51019,313887,271386
1631024029468,51018,313865,271386
1631024029478,51000,313782,271353
1631024029488,50985,313714,271334
1631024029498,50966,313728,271332
1631024029508,50957,313710,271315
1631024029518,50941,313685,271331
1631024029528,50928,313653,271332
1631024029538,50926,313708,271307
1631024029548,50928,313701,271341
1631024029558,50925,313617,271354
1631024029568,50921,313637,271312
1631024029578,50909,313625,271347
1631024029588,50904,313594,271325
1631024029598,50901,313548,271341
1631024029608,50904,313543,271321
1631024029618,50904,313547,271338
1631024029628,50898,313534,271353
1631024029638,50888,313510,271326
1631024029648,50886,313594,271330
1631024029658,50888,313533,271356
1631024029668,50885,313548,271364
1631024029678,50885,313557,271392
1631024029688,50893,313557,271383
1631024029698,50898,313608,271385
1631024029708,50906,313588,271402
1631024029718,50915,313623,271394
1631024029728,50918,313621,271417
1631024029738,50909,313647,271430
1631024029748,50928,313604,271407
1631024029758,50931,313653,271469
1631024029768,50928,313607,271414
1631024029778,50929,313616,271400
1631024029788,50949,313630,271461
1631024029798,50948,313620,271425
1631024029808,50946,313661,271433
1631024029818,50966,313615,271444
1631024029828,50963,313669,271434
1631024029838,50962,313684,271447
1631024029848,50964,313696,271453
1631024029858,50971,313670,271484
1631024029868,50981,313673,271489
1631024029878,50986,313734,271458
1631024029888,50989,313730,271477
1631024029898,50994,313742,271469
1631024029908,51004,313682,271496
1631024029918,51014,313711,271495
1631024029928,51021,313745,271494
1631024029938,51029,313753,271502
1631024029948,51036,313784,271478
1631024029958,51049,313780,271506
1631024029968,51054,313799,271520
1631024029978,51066,313825,271508
1631024029988,51076,313796,271530
1631024029998,51077,313817,271529
1631024030008,51094,313889,271532
1631024030018,51099,313885,271521
1631024030028,51103,313899,271553
1631024030038,51113,313924,271534
1631024030048,51131,313943,271528
1631024030058,51136,313937,271575
1631024030068,51144,314005,271579
1631024030078,51166,314018,271567
1631024030088,51179,314010,271600
1631024030098,51197,314029,271601
1631024030108,51202,314075,271616
1631024030118,51200,314027,271607
1631024030128,51225,314110,271610
1631024030138,51238,314073,271615
1631024030148,51248,314114,271608
1631024030158,51250,314157,271637
1631024030168,51265,314157,271651
1631024030178,51279,314137,271654
1631024030188,51290,314233,271636
1631024030198,51307,314227,271649
1631024030208,51302,314190,271659
1631024030218,51327,314283,271630
1631024030228,51337,314260,271656
1631024030238,51341,314267,271655
1631024030248,51349,314342,271666
1631024030258,51365,314319,271666
1631024030268,51369,314334,271647
1631024030278,51374,314275,271641
1631024030288,51375,314234,271606
1631024030298,51372,314210,271611
1631024030308,51367,314171,271549
1631024030318,51360,314154,271545
1631024030328,51351,314163,271518
1631024030338,51349,314111,271547
1631024030348,51350,314097,271535
1631024030358,51349,314125,271515
1631024030368,51363,314125,271551
1631024030378,51369,314051,271586
1631024030388,51377,314096,271548
1631024030398,51372,314058,271564
1631024030408,51364,314085,271527
1631024030418,51376,314105,271568
1631024030428,51368,314061,271548
1631024030438,51387,314047,271531
1631024030448,51388,314046,271521
1631024030458,51380,314028,271528
1631024030468,51384,314038,271527
1631024030478,51384,314061,271535
1631024030488,51381,314061,271519
1631024030498,51382,314075,271529
1631024030508,51390,314068,271568
1631024030518,51398,314089,271573
1631024030528,51402,314108,271577
1631024030538,51425,314096,271563
1631024030548,51424,314146,271567
1631024030558,51429,314106,271552
1631024030568,51440,314095,271562
1631024030578,51449,314099,271572
1631024030588,51447,314047,271569
1631024030598,51451,314086,271572
1631024030608,51464,314093,271558
1631024030618,51460,314137,271567
1631024030628,51460,314106,271577
1631024030638,51478,314136,271575
1631024030648,51482,314138,271558
1631024030658,51491,314179,271591
1631024030668,51500,314140,271537
1631024030678,51500,314211,271576
1631024030688,51504,314179,271560
1631024030698,51514,314164,271579
1631024030708,51512,314255,271580
1631024030718,51522,314192,271583
1631024030728,51532,314224,271593
1631024030738,51536,314221,271595
1631024030748,51550,314216,271556
1631024030758,51552,314289,271593
1631024030768,51564,314267,271582
1631024030778,51578,314283,271584
1631024030788,51572,314302,271603
1631024030798,51588,314312,271594
1631024030808,51585,314319,271582
1631024030818,51594,314337,271576
1631024030828,51601,314386,271607
1631024030838,51611,314353,271598
1631024030848,51621,314372,271583
1631024030858,51628,314338,271591
1631024030868,51641,314406,271596
1631024030878,51650,314409,271604
1631024030888,51662,314406,271610
1631024030898,51671,314408,271613
1631024030908,51666,314469,271603
1631024030918,51690,314487,271620
1631024030928,51687,314480,271640
1631024030938,51704,314542,271597
1631024030948,51708,314468,271603
1631024030958,51722,314527,271614
1631024030968,51730,314532,271603
1631024030978,51739,314505,271610
1631024030988,51741,314573,271601
1631024030998,51751,314541,271597
1631024031008,51763,314545,271628
1631024031018,51767,314583,271612
1631024031028,51768,314569,271643
1631024031038,51782,314617,271641
1631024031048,51782,314634,271615
1631024031058,51813,314621,271578
1631024031068,51816,314640,271583
1631024031078,51809,314629,271586
1631024031088,51810,314637,271585
1631024031098,51817,314616,271539
1631024031108,51817,314580,271533
1631024031118,51812,314476,271475
1631024031128,51790,314462,271450
1631024031138,51781,314445,271436
1631024031148,51777,314371,271435
1631024031158,51776,314391,271419
1631024031168,51779,314374,271423
1631024031178,51770,314364,271394
1631024031188,51775,314327,271397
1631024031198,51768,314348,271426
1631024031208,51770,314312,271405
1631024031218,51782,314319,271415
1631024031228,51775,314313,271382
1631024031238,51778,314327,271375
1631024031248,51761,314305,271369
1631024031258,51772,314236,271366
1631024031268,51758,314228,271366
1631024031278,51768,314237,271361
1631024031288,51766,314238,271371
1631024031298,51757,314231,271345
1631024031308,51752,314227,271361
1631024031318,51767,314186,271344
1631024031328,51759,314200,271337
1631024031338,51756,314225,271333
1631024031348,51774,314296,271362
1631024031358,51760,314266,271335
1631024031368,51773,314260,271321
1631024031378,51770,314259,271333
1631024031388,51765,314218,271338
1631024031398,51769,314223,271335
1631024031408,51773,314228,271319
1631024031418,51779,314200,271295
1631024031428,51769,314171,271274
1631024031438,51782,314215,271273
1631024031448,51775,314196,271289
1631024031458,51776,314218,271296
1631024031468,51779,314221,271275
1631024031478,51776,314227,271279
1631024031488,51781,314210,271290
1631024031498,51778,314251,271256
1631024031508,51779,314239,271255
1631024031518,51781,314206,271264
1631024031528,51783,314289,271271
1631024031538,51793,314249,271247
1631024031548,51795,314254,271239
1631024031558,51799,314242,271248
1631024031568,51803,314305,271265
1631024031578,51804,314248,271262
1631024031588,51813,314269,271257
1631024031598,51799,314265,271236
1631024031608,51817,314246,271248
1631024031618,51811,314307,271243
1631024031628,51810,314304,271226
1631024031638,51820,314294,271233
1631024031648,51821,314300,271247
1631024031658,51821,314310,271227
1631024031668,51831,314313,271232
1631024031678,51830,314291,271247
1631024031688,51839,314373,271232
1631024031698,51853,314333,271228
1631024031708,51854,314349,271248
1631024031718,51871,314351,271243
1631024031728,51865,314354,271251
1631024031738,51880,314363,271239
1631024031748,51868,314402,271226
1631024031758,51878,314412,271233
1631024031768,51869,314472,271237
1631024031778,51881,314397,271243
1631024031788,51883,314442,271229
1631024031798,51896,314467,271207
1631024031808,51893,314444,271246
1631024031818,51900,314436,271230
1631024031828,51905,314449,271256
1631024031838,51916,314457,271229
1631024031848,51909,314521,271219
1631024031858,51931,314511,271230
1631024031868,51925,314462,271211
1631024031878,51932,314431,271183
1631024031888,51932,314421,271165
1631024031898,51904,314347,271156
1631024031908,51908,314257,271109
1631024031918,51889,314304,271055
1631024031928,51874,314237,271056
1631024031938,51858,314176,271049
1631024031948,51846,314185,271005
1631024031958,51842,314142,271021
1631024031968,51841,314145,271010
1631024031978,51824,314095,270986
1631024031988,51811,314075,271013
1631024031998,51809,314060,271011
1631024032008,51798,314018,270992
1631024032018,51784,314030,270985
1631024032028,51795,314018,270996
1631024032038,51779,313988,270969
1631024032048,51776,313916,270963
1631024032058,51754,313939,270944
1631024032068,51751,313898,270968
1631024032078,51738,313842,270921
1631024032088,51726,313850,270964
1631024032098,51711,313873,270924
1631024032108,51698,313845,270910
1631024032118,51708,313869,270938
1631024032128,51698,313864,270933
1631024032138,51696,313840,270918
1631024032148,51689,313866,270932
1631024032158,51687,313832,270961
1631024032168,51692,313850,270956
1631024032178,51684,313837,270900
1631024032188,51688,313811,270962
1631024032198,51679,313818,270913
1631024032208,51677,313858,270899
1631024032218,51673,313845,270902
1631024032228,51669,313769,270935
1631024032238,51667,313804,270907
1631024032248,51673,313808,270905
1631024032258,51667,313815,270926
1631024032268,51657,313771,270937
1631024032278,51656,313744,270934
1631024032288,51646,313821,270924
1631024032298,51645,313821,270913
1631024032308,51649,313785,270931
1631024032318,51644,313762,270933
1631024032328,51642,313810,270913
1631024032338,51638,313780,270936
1631024032348,51641,313827,270934
1631024032358,51638,313789,270925
1631024032368,51638,313782,270960
1631024032378,51650,313775,270942
1631024032388,51656,313784,270926
1631024032398,51644,313852,270935
1631024032408,51653,313785,270938
1631024032418,51644,313861,270968
1631024032428,51646,313854,270957
1631024032438,51645,313827,270952
1631024032448,51646,313844,270959
1631024032458,51658,313867,270963
1631024032468,51661,313902,270941
1631024032478,51657,313889,270932
1631024032488,51653,313860,270950
1631024032498,51658,313873,270919
1631024032508,51662,313902,270972
1631024032518,51674,313899,270949
1631024032528,51677,313912,270990
1631024032538,51667,313935,270991
1631024032548,51679,313960,270975
1631024032558,51680,313998,270984
1631024032568,51685,313924,270971
1631024032578,51693,313974,270997
1631024032588,51692,313982,271005
1631024032598,51689,314032,270991
1631024032608,51701,313995,271002
1631024032618,51701,314017,271004
1631024032628,51703,314039,271017
1631024032638,51716,314023,271024
1631024032648,51720,314029,271027
1631024032658,51720,314085,271018
1631024032668,51739,314069,271053
1631024032678,51737,314116,271063
1631024032688,51731,314130,271069
1631024032698,51749,314147,271072
1631024032708,51760,314149,271074
1631024032718,51759,314124,271065
1631024032728,51767,314147,271057
1631024032738,51763,314200,271024
1631024032748,51759,314095,271015
1631024032758,51741,314140,270998
1631024032768,51728,314067,270995
1631024032778,51704,313990,270981
1631024032788,51690,313945,270934
1631024032798,51667,313836,270925
1631024032808,51655,313858,270892
1631024032818,51632,313847,270932
1631024032828,51619,313798,270894
1631024032838,51609,313775,270896
1631024032848,51598,313759,270921
1631024032858,51587,313772,270898
1631024032868,51579,313749,270917
1631024032878,51549,313665,270922
1631024032888,51545,313712,270906
1631024032898,51539,313667,270890
1631024032908,51512,313627,270894
1631024032918,51501,313611,270929
1631024032928,51484,313630,270896
1631024032938,51467,313606,270912
1631024032948,51461,313623,270905
1631024032958,51456,313584,270907
1631024032968,51445,313586,270918
1631024032978,51433,313556,270932
1631024032988,51427,313610,270933
1631024032998,51422,313630,270962
1631024033008,51420,313629,270942
1631024033018,51422,313601,270963
1631024033028,51427,313647,270963
1631024033038,51415,313631,270988
1631024033048,51409,313629,270971
1631024033058,51397,313602,270993
1631024033068,51383,313627,270979
1631024033078,51382,313640,270980
1631024033088,51372,313651,270991
1631024033098,51360,313606,271003
1631024033108,51362,313624,270981
1631024033118,51353,313623,270985
1631024033128,51344,313618,271003
1631024033138,51346,313691,271024
1631024033148,51346,313655,270992
1631024033158,51342,313662,271013
1631024033168,51342,313642,271020
1631024033178,51337,313700,271039
1631024033188,51339,313689,271013
1631024033198,51328,313685,271024
1631024033208,51323,313677,271051
1631024033218,51333,313659,271030
1631024033228,51323,313698,271047
1631024033238,51331,313725,271072
1631024033248,51327,313735,271082
1631024033258,51320,313737,271073
1631024033268,51320,313748,271110
1631024033278,51326,313740,271088
1631024033288,51326,313753,271125
1631024033298,51333,313778,271111
1631024033308,51333,313805,271104
1631024033318,51330,313789,271107
1631024033328,51334,313814,271133
1631024033338,51335,313800,271095
1631024033348,51342,313848,271124
1631024033358,51338,313891,271150
1631024033368,51351,313879,271165
1631024033378,51353,313877,271162
1631024033388,51347,313943,271175
1631024033398,51361,313935,271175
1631024033408,51361,313938,271202
1631024033418,51364,313904,271185
1631024033428,51369,313950,271210
1631024033438,51371,313974,271198
1631024033448,51379,314014,271220
1631024033458,51380,314014,271211
1631024033468,51387,314047,271232
1631024033478,51383,314031,271239
1631024033488,51398,314046,271223
1631024033498,51402,314091,271253
1631024033508,51398,314113,271268
1631024033518,51413,314122,271281
1631024033528,51416,314145,271261
1631024033538,51414,314096,271233
1631024033548,51409,314144,271230
1631024033558,51397,314089,271189
1631024033568,51382,314040,271215
1631024033578,51372,313972,271158
1631024033588,51346,313921,271113
1631024033598,51318,313823,271074
1631024033608,51305,313831,271079
1631024033618,51277,313810,271054
1631024033628,51250,313745,271060
1631024033638,51244,313800,271068
1631024033648,51227,313713,271067
1631024033658,51211,313727,271076
1631024033668,51196,313726,271074
1631024033678,51202,313717,271069
1631024033688,51189,313634,271086
1631024033698,51174,313690,271074
1631024033708,51172,313682,271096
1631024033718,51158,313651,271082
1631024033728,51136,313697,271093
1631024033738,51138,313658,271103
1631024033748,51126,313628,271109
1631024033758,51116,313627,271087
1631024033768,51110,313649,271128
1631024033778,51103,313678,271112
1631024033788,51096,313626,271132
1631024033798,51099,313658,271121
1631024033808,51107,313694,271150
1631024033818,51097,313687,271147
1631024033828,51108,313724,271166
1631024033838,51087,313701,271142
1631024033848,51092,313678,271120
1631024033858,51089,313642,271141
1631024033868,51088,313647,271148
1631024033878,51082,313657,271172
1631024033888,51075,313660,271149
1631024033898,51077,313732,271169
1631024033908,51079,313742,271190
1631024033918,51073,313693,271189
1631024033928,51079,313688,271213
1631024033938,51075,313768,271215
1631024033948,51075,313705,271224
1631024033958,51084,313768,271224
1631024033968,51083,313705,271240
1631024033978,51089,313770,271209
1631024033988,51090,313771,271232
1631024033998,51096,313784,271252
1631024034008,51098,313744,271215
1631024034018,51101,313793,271260
1631024034028,51094,313799,271223
1631024034038,51097,313826,271259
1631024034048,51104,313809,271267
1631024034058,51095,313810,271273
1631024034068,51110,313849,271277
1631024034078,51114,313840,271282
1631024034088,51118,313880,271275
1631024034098,51125,313853,271290
1631024034108,51125,313854,271290
1631024034118,51136,313894,271306
1631024034128,51140,313897,271319
1631024034138,51149,313888,271295
1631024034148,51166,313943,271337
1631024034158,51167,313945,271315
1631024034168,51173,313961,271337
1631024034178,51181,313931,271322
1631024034188,51186,313976,271344
1631024034198,51188,313994,271349
1631024034208,51197,314022,271360
1631024034218,51203,314067,271350
1631024034228,51208,314038,271388
1631024034238,51223,314066,271369
1631024034248,51231,314074,271350
1631024034258,51226,314065,271385
1631024034268,51235,314160,271380
1631024034278,51233,314135,271400
1631024034288,51249,314135,271410
1631024034298,51272,314133,271374
1631024034308,51263,314161,271398
1631024034318,51268,314128,271349
1631024034328,51255,314070,271299
1631024034338,51240,314043,271308
1631024034348,51228,313952,271278
1631024034358,51218,313952,271228
1631024034368,51191,313895,271216
1631024034378,51174,313910,271227
1631024034388,51166,313858,271210
1631024034398,51147,313834,271232
1631024034408,51150,313829,271199
1631024034418,51142,313810,271219
1631024034428,51144,313797,271212
1631024034438,51129,313773,271227
1631024034448,51127,313806,271216
1631024034458,51126,313767,271240
1631024034468,51126,313795,271212
1631024034478,51122,313743,271247
1631024034488,51123,313763,271225
1631024034498,51127,313787,271235
1631024034508,51107,313737,271228
1631024034518,51109,313700,271235
1631024034528,51096,313709,271265
1631024034538,51097,313709,271261
1631024034548,51105,313770,271261
1631024034558,51108,313736,271269
1631024034568,51107,313744,271265
1631024034578,51107,313772,271334
1631024034588,51117,313781,271307
1631024034598,51123,313753,271301
1631024034608,51126,313825,271314
1631024034618,51131,313792,271310
1631024034628,51140,313797,271319
1631024034638,51135,313815,271300
1631024034648,51147,313852,271317
1631024034658,51141,313790,271353
1631024034668,51141,313819,271345
1631024034678,51160,313805,271353
1631024034688,51157,313796,271347
1631024034698,51149,313816,271352
1631024034708,51165,313847,271363
1631024034718,51172,313841,271369
1631024034728,51163,313854,271369
1631024034738,51180,313922,271370
1631024034748,51186,313873,271375
1631024034758,51185,313959,271388
1631024034768,51191,313912,271394
1631024034778,51208,313896,271415
1631024034788,51206,313966,271404
1631024034798,51218,313972,271416
1631024034808,51237,313985,271425
1631024034818,51242,313996,271413
1631024034828,51245,314025,271407
1631024034838,51246,313996,271457
1631024034848,51254,314034,271456
1631024034858,51256,314028,271451
1631024034868,51274,314020,271462
1631024034878,51273,314054,271455
1631024034888,51286,314099,271450
1631024034898,51298,314111,271483
1631024034908,51308,314117,271502
1631024034918,51318,314110,271490
1631024034928,51326,314148,271493
1631024034938,51327,314156,271499
1631024034948,51356,314172,271510
1631024034958,51354,314203,271508
1631024034968,51360,314185,271521
1631024034978,51384,314209,271538
1631024034988,51390,314241,271546
1631024034998,51390,314283,271539
1631024035008,51408,314312,271551
1631024035018,51410,314287,271540
1631024035028,51423,314328,271578
1631024035038,51433,314362,271584
1631024035048,51449,314331,271595
1631024035058,51459,314377,271592
1631024035068,51472,314437,271617
1631024035078,51478,314435,271600
1631024035088,51492,314413,271609
1631024035098,51490,314445,271585
1631024035108,51497,314424,271555
1631024035118,51490,314354,271563
1631024035128,51491,314302,271531
1631024035138,51493,314301,271542
1631024035148,51487,314268,271514
1631024035158,51468,314233,271508
1631024035168,51467,314244,271506
1631024035178,51461,314213,271480
1631024035188,51463,314214,271510
1631024035198,51471,314204,271516
1631024035208,51467,314179,271488
1631024035218,51474,314225,271559
1631024035228,51475,314228,271520
1631024035238,51473,314200,271524
1631024035248,51469,314205,271529
1631024035258,51466,314153,271531
1631024035268,51478,314241,271523
1631024035278,51472,314133,271542
1631024035288,51478,314169,271562
1631024035298,51467,314178,271529
1631024035308,51479,314177,271551
1631024035318,51484,314192,271568
1631024035328,51480,314170,271502
1631024035338,51489,314242,271559
1631024035348,51491,314175,271588
1631024035358,51495,314235,271611
1631024035368,51510,314251,271616
1631024035378,51516,314291,271622
1631024035388,51525,314235,271617
1631024035398,51537,314254,271653
1631024035408,51533,314243,271621
1631024035418,51541,314281,271611
1631024035428,51542,314253,271609
1631024035438,51541,314262,271620
1631024035448,51566,314312,271628
1631024035458,51563,314276,271612
1631024035468,51575,314266,271624
1631024035478,51572,314355,271645
1631024035488,51576,314360,271651
1631024035498,51592,314337,271660
1631024035508,51594,314367,271658
1631024035518,51592,314354,271646
1631024035528,51607,314347,271661
1631024035538,51614,314354,271645
1631024035548,51611,314382,271677
1631024035558,51623,314401,271677
1631024035568,51635,314406,271678
1631024035578,51632,314430,271686
1631024035588,51650,314453,271697
1631024035598,51667,314479,271712
1631024035608,51684,314464,271704
1631024035618,51697,314498,271703
1631024035628,51692,314539,271721
1631024035638,51694,314508,271727
1631024035648,51707,314479,271725
1631024035658,51708,314519,271738
1631024035668,51716,314566,271721
1631024035678,51725,314618,271741
1631024035688,51736,314627,271735
1631024035698,51744,314579,271743
1631024035708,51760,314626,271758
1631024035718,51769,314608,271778
1631024035728,51787,314643,271779
1631024035738,51794,314656,271782
1631024035748,51794,314681,271792
1631024035758,51815,314667,271784
1631024035768,51827,314729,271795
1631024035778,51816,314679,271790
1631024035788,51833,314735,271827
1631024035798,51844,314735,271848
1631024035808,51857,314752,271831
1631024035818,51868,314792,271845
1631024035828,51875,314810,271831
1631024035838,51870,314816,271822
1631024035848,51892,314862,271848
1631024035858,51903,314852,271835
1631024035868,51909,314820,271830
1631024035878,51921,314874,271818
1631024035888,51929,314883,271821
1631024035898,51922,314847,271793
1631024035908,51920,314844,271784
1631024035918,51907,314803,271738
1631024035928,51907,314768,271710
1631024035938,51902,314689,271710
1631024035948,51895,314701,271672
1631024035958,51898,314611,271661
1631024035968,51899,314639,271642
1631024035978,51891,314627,271691
1631024035988,51878,314588,271688
1631024035998,51889,314584,271668
1631024036008,51901,314592,271667
1631024036018,51890,314610,271670
1631024036028,51890,314586,271683
1631024036038,51891,314564,271638
1631024036048,51884,314557,271638
1631024036058,51890,314545,271613
1631024036068,51886,314519,271623
1631024036078,51881,314548,271636
1631024036088,51889,314498,271594
1631024036098,51871,314522,271622
1631024036108,51881,314542,271604
1631024036118,51874,314519,271630
1631024036128,51880,314504,271605
1631024036138,51894,314569,271665
1631024036148,51887,314578,271632
1631024036158,51891,314548,271633
1631024036168,51901,314530,271662
1631024036178,51898,314527,271629
1631024036188,51908,314557,271645
1631024036198,51901,314537,271621
1631024036208,51907,314569,271620
1631024036218,51903,314523,271624
1631024036228,51913,314571,271612
1631024036238,51913,314593,271605
1631024036248,51925,314526,271631
1631024036258,51924,314563,271635
1631024036268,51922,314600,271632
1631024036278,51935,314566,271635
1631024036288,51938,314580,271620
1631024036298,51940,314597,271647
1631024036308,51943,314586,271610
1631024036318,51955,314597,271636
1631024036328,51951,314570,271605
1631024036338,51959,314612,271644
1631024036348,51962,314611,271613
1631024036358,51963,314599,271603
1631024036368,51969,314616,271643
1631024036378,51970,314630,271642
1631024036388,51974,314624,271626
1631024036398,51985,314612,271611
1631024036408,51988,314652,271628
1631024036418,51994,314658,271631
1631024036428,51998,314757,271647
1631024036438,52005,314728,271663
1631024036448,52013,314740,271633
1631024036458,52021,314708,271631
1631024036468,52031,314720,271655
1631024036478,52031,314766,271607
1631024036488,52034,314736,271660
1631024036498,52032,314773,271647
1631024036508,52041,314784,271684
1631024036518,52051,314801,271658
1631024036528,52054,314787,271660
1631024036538,52071,314796,271640
1631024036548,52083,314816,271669
1631024036558,52084,314877,271672
1631024036568,52095,314859,271682
1631024036578,52087,314844,271640
1631024036588,52115,314861,271665
1631024036598,52104,314874,271661
1631024036608,52108,314873,271665
1631024036618,52108,314862,271677
1631024036628,52113,314844,271625
1631024036638,52102,314803,271590
1631024036648,52095,314740,271551
1631024036658,52086,314716,271541
1631024036668,52069,314634,271538
1631024036678,52062,314640,271482
1631024036688,52050,314607,271504
1631024036698,52052,314607,271454
1631024036708,52039,314552,271460
1631024036718,52026,314568,271494
1631024036728,52036,314567,271466
1631024036738,52025,314543,271439
1631024036748,52025,314507,271446
1631024036758,52012,314522,271446
1631024036768,52010,314454,271432
1631024036778,51998,314488,271432
1631024036788,51999,314449,271431
1631024036798,51986,314419,271399
1631024036808,51988,314392,271433
1631024036818,51974,314385,271409
1631024036828,51973,314409,271415
1631024036838,51961,314402,271411
1631024036848,51963,314411,271418
1631024036858,51957,314376,271394
1631024036868,51966,314358,271418
1631024036878,51966,314404,271422
1631024036888,51967,314373,271470
1631024036898,51967,314395,271446
1631024036908,51978,314437,271463
1631024036918,51972,314391,271444
1631024036928,51972,314427,271459
1631024036938,51960,314374,271417
1631024036948,51973,314381,271453
1631024036958,51962,314362,271430
1631024036968,51965,314430,271427
1631024036978,51962,314401,271410
1631024036988,51957,314408,271423
1631024036998,51964,314410,271423
1631024037008,51956,314371,271420
1631024037018,51958,314430,271417
1631024037028,51954,314425,271455
1631024037038,51959,314405,271469
1631024037048,51958,314375,271452
1631024037058,51955,314389,271455
1631024037068,51973,314459,271465
1631024037078,51975,314381,271446
1631024037088,51967,314420,271461
1631024037098,51984,314429,271439
1631024037108,51965,314457,271452
1631024037118,51974,314458,271466
1631024037128,51982,314464,271470
1631024037138,51984,314479,271466
1631024037148,51986,314481,271458
1631024037158,51986,314440,271448
1631024037168,51991,314483,271497
1631024037178,51992,314491,271459
1631024037188,52001,314496,271461
1631024037198,52011,314526,271468
1631024037208,52016,314513,271472
1631024037218,52023,314519,271490
1631024037228,52019,314510,271476
1631024037238,52013,314547,271500
1631024037248,52025,314578,271508
1631024037258,52018,314584,271485
1631024037268,52035,314637,271450
1631024037278,52033,314593,271489
1631024037288,52038,314604,271487
1631024037298,52042,314654,271487
1631024037308,52042,314636,271480
1631024037318,52052,314663,271498
1631024037328,52052,314654,271495
1631024037338,52062,314661,271533
1631024037348,52071,314648,271499
1631024037358,52078,314705,271525
1631024037368,52076,314742,271527
1631024037378,52085,314718,271518
1631024037388,52088,314705,271526
1631024037398,52098,314726,271547
1631024037408,52085,314726,271502
1631024037418,52100,314726,271516
1631024037428,52112,314768,271523
1631024037438,52102,314739,271511
1631024037448,52116,314731,271527
1631024037458,52105,314724,271483
1631024037468,52097,314673,271441
1631024037478,52079,314637,271433
1631024037488,52067,314603,271396
1631024037498,52050,314526,271366
1631024037508,52032,314479,271348
1631024037518,52015,314433,271342
1631024037528,52002,314441,271346
1631024037538,51998,314402,271308
1631024037548,51989,314440,271308
1631024037558,51979,314420,271338
1631024037568,51969,314381,271326
1631024037578,51952,314344,271310
1631024037588,51940,314333,271316
1631024037598,51932,314310,271324
1631024037608,51909,314310,271310
1631024037618,51901,314283,271309
1631024037628,51891,314254,271299
1631024037638,51879,314284,271310
1631024037648,51869,314257,271318
1631024037658,51856,314250,271297
1631024037668,51847,314211,271320
1631024037678,51836,314243,271307
1631024037688,51844,314228,271342
1631024037698,51824,314245,271357
1631024037708,51838,314255,271336
1631024037718,51831,314248,271368
1631024037728,51820,314251,271378
1631024037738,51820,314247,271380
1631024037748,51812,314304,271370
1631024037758,51813,314279,271387
1631024037768,51800,314267,271365
1631024037778,51808,314262,271396
1631024037788,51804,314253,271380
1631024037798,51797,314298,271392
1631024037808,51779,314248,271385
1631024037818,51776,314282,271394
1631024037828,51777,314296,271401
1631024037838,51777,314295,271426
1631024037848,51789,314273,271426
1631024037858,51772,314266,271419
1631024037868,51773,314280,271427
1631024037878,51766,314283,271420
1631024037888,51768,314273,271451
1631024037898,51767,314256,271432
1631024037908,51761,314283,271427
1631024037918,51759,314289,271454
1631024037928,51759,314286,271459
1631024037938,51754,314325,271462
1631024037948,51764,314333,271455
1631024037958,51757,314355,271473
1631024037968,51756,314353,271475
1631024037978,51758,314349,271467
1631024037988,51754,314373,271444
1631024037998,51758,314355,271454
1631024038008,51776,314361,271482
1631024038018,51762,314424,271489
1631024038028,51775,314406,271512
1631024038038,51766,314429,271489
1631024038048,51775,314438,271507
1631024038058,51768,314454,271492
1631024038068,51777,314431,271488
1631024038078,51780,314468,271523
1631024038088,51775,314501,271518
1631024038098,51781,314477,271506
1631024038108,51783,314461,271504
1631024038118,51777,314495,271548
1631024038128,51778,314564,271542
1631024038138,51790,314513,271536
1631024038148,51789,314551,271556
1631024038158,51800,314574,271564
1631024038168,51802,314588,271552
1631024038178,51803,314609,271564
1631024038188,51794,314543,271560
1631024038198,51808,314608,271546
1631024038208,51813,314586,271571
1631024038218,51813,314644,271572
1631024038228,51826,314654,271564
1631024038238,51831,314625,271606
1631024038248,51833,314688,271569
1631024038258,51823,314721,271622
1631024038268,51832,314690,271624
1631024038278,51839,314732,271613
1631024038288,51844,314742,271554
1631024038298,51839,314741,271616
1631024038308,51842,314754,271600
1631024038318,51831,314636,271591
1631024038328,51809,314681,271552
1631024038338,51796,314605,271524
1631024038348,51783,314539,271492
1631024038358,51756,314507,271456
1631024038368,51750,314456,271449
1631024038378,51726,314436,271441
1631024038388,51716,314399,271447
1631024038398,51695,314373,271472
1631024038408,51683,314375,271436
1631024038418,51659,314413,271431
1631024038428,51645,314346,271449
1631024038438,51638,314348,271414
1631024038448,51627,314290,271419
1631024038458,51617,314342,271400
1631024038468,51599,314319,271455
1631024038478,51582,314291,271386
1631024038488,51570,314270,271411
1631024038498,51570,314297,271398
1631024038508,51544,314249,271425
1631024038518,51547,314193,271414
1631024038528,51516,314240,271431
1631024038538,51520,314243,271428
1631024038548,51505,314219,271422
1631024038558,51514,314236,271452
1631024038568,51508,314239,271425
1631024038578,51492,314204,271442
1631024038588,51491,314287,271465
1631024038598,51487,314234,271467
1631024038608,51482,314232,271479
1631024038618,51463,314208,271450
1631024038628,51465,314236,271462
1631024038638,51458,314223,271457
1631024038648,51447,314223,271470
1631024038658,51460,314228,271438
1631024038668,51442,314207,271452
1631024038678,51429,314190,271481
1631024038688,51445,314259,271483
1631024038698,51436,314264,271467
1631024038708,51425,314264,271505
1631024038718,51417,314246,271488
1631024038728,51424,314223,271474
1631024038738,51415,314256,271489
1631024038748,51412,314237,271493
1631024038758,51409,314239,271469
1631024038768,51409,314239,271525
1631024038778,51409,314277,271518
1631024038788,51404,314256,271513
1631024038798,51417,314298,271524
1631024038808,51405,314276,271534
1631024038818,51419,314295,271541
1631024038828,51423,314332,271537
1631024038838,51416,314307,271558
1631024038848,51419,314342,271561
1631024038858,51419,314319,271556
1631024038868,51424,314294,271561
1631024038878,51420,314331,271565
1631024038888,51424,314378,271568
1631024038898,51420,314354,271595
1631024038908,51423,314360,271561
1631024038918,51423,314361,271558
1631024038928,51433,314403,271589
1631024038938,51433,314364,271597
1631024038948,51446,314446,271612
1631024038958,51441,314427,271600
1631024038968,51442,314447,271601
1631024038978,51451,314480,271617
1631024038988,51446,314454,271603
1631024038998,51448,314456,271616
1631024039008,51472,314414,271627
1631024039018,51467,314483,271623
1631024039028,51465,314480,271591
1631024039038,51463,314539,271619
1631024039048,51474,314532,271616
1631024039058,51484,314528,271649
1631024039068,51474,314569,271638
1631024039078,51476,314517,271649
1631024039088,51475,314581,271640
1631024039098,51490,314570,271636
1631024039108,51491,314543,271664
1631024039118,51492,314567,271635
1631024039128,51489,314565,271619
1631024039138,51468,314526,271597
1631024039148,51467,314439,271550
1631024039158,51439,314374,271483
1631024039168,51417,314298,271471
1631024039178,51394,314298,271498
1631024039188,51366,314298,271463
1631024039198,51361,314202,271484
1631024039208,51358,314217,271444
1631024039218,51340,314215,271481
1631024039228,51332,314223,271467
1631024039238,51322,314190,271432
1631024039248,51299,314168,271465
1631024039258,51286,314150,271432
1631024039268,51280,314125,271447
1631024039278,51266,314086,271462
1631024039288,51255,314116,271480
1631024039298,51245,314061,271469
1631024039308,51265,314055,271442
1631024039318,51237,314071,271467
1631024039328,51223,314026,271488
1631024039338,51215,314040,271435
1631024039348,51215,314055,271499
1631024039358,51212,314011,271481
1631024039368,51207,314049,271522
1631024039378,51210,314027,271512
1631024039388,51216,314059,271506
1631024039398,51217,314078,271549
1631024039408,51212,314073,271534
1631024039418,51211,314084,271541
1631024039428,51212,314104,271552
1631024039438,51207,314102,271541
1631024039448,51216,314057,271524
1631024039458,51212,314067,271528
