timestamp,green,ir,red
1631024004208,22636,57641,57663
1631024004218,22616,90408,90432
1631024004228,22594,123006,123027
1631024004238,22579,155614,146166
1631024004248,22567,163609,145925
1631024004258,22549,163541,145915
1631024004268,22537,163548,145890
1631024004278,22523,163534,145867
1631024004288,22534,163502,145883
1631024004298,22522,163511,145857
1631024004308,22516,163492,145867
1631024004318,22507,163480,145803
1631024004328,22505,163415,145780
1631024004338,22501,163402,145773
1631024004348,22499,163395,145741
1631024004358,22481,163370,145721
1631024004368,22480,163370,145740
1631024004378,22470,163391,145688
1631024004388,22460,163312,145647
1631024004398,22433,163246,145544
1631024004408,22409,163109,145386
1631024004418,22374,162936,145163
1631024004428,22335,162705,144916
1631024004438,22289,162495,144681
1631024004448,22263,162321,144482
1631024004458,22237,162230,144371
1631024004468,22226,162223,144336
1631024004478,22230,162230,144322
1631024004488,22234,162318,144390
1631024004498,22240,162361,144437
1631024004508,22256,162485,144522
1631024004518,22266,162533,144579
1631024004528,22274,162585,144636
1631024004538,22291,162615,144674
1631024004548,22292,162675,144724
1631024004558,22310,162721,144726
1631024004568,22314,162771,144771
1631024004578,22333,162782,144786
1631024004588,22333,162716,144749
1631024004598,22318,162585,144595
1631024004608,22298,162374,144425
1631024004618,22279,162182,144278
1631024004628,22256,162027,144208
1631024004638,22216,161978,144188
1631024004648,22189,161896,144164
1631024004658,22153,161859,144177
1631024004668,22124,161861,144184
1631024004678,22105,161814,144211
1631024004688,22075,161794,144213
1631024004698,22049,161748,144183
1631024004708,22028,161693,144167
1631024004718,22001,161676,144164
1631024004728,21997,161641,144181
1631024004738,21979,161653,144209
1631024004748,21970,161652,144201
1631024004758,21949,161613,144187
1631024004768,21938,161583,144171
1631024004778,21928,161575,144160
1631024004788,21917,161543,144125
1631024004798,21913,161561,144130
1631024004808,21905,161540,144123
1631024004818,21904,161540,144123
1631024004828,21900,161510,144115
1631024004838,21906,161515,144076
1631024004848,21906,161453,144082
1631024004858,21916,161453,144057
1631024004868,21915,161430,144037
1631024004878,21914,161422,144019
1631024004888,21921,161396,144015
1631024004898,21925,161411,144025
1631024004908,21933,161414,144036
1631024004918,21932,161402,144033
1631024004928,21941,161398,144007
1631024004938,21946,161396,144015
1631024004948,21956,161390,144028
1631024004958,21956,161382,144003
1631024004968,21959,161417,144014
1631024004978,21963,161397,143985
1631024004988,21966,161370,143959
1631024004998,21971,161369,143953
1631024005008,21975,161358,143930
1631024005018,21985,161355,143896
1631024005028,21971,161255,143827
1631024005038,21954,161157,143711
1631024005048,21939,161044,143528
1631024005058,21928,160905,143342
1631024005068,21905,160707,143171
1631024005078,21889,160567,142990
1631024005088,21877,160462,142866
1631024005098,21877,160393,142792
1631024005108,21880,160374,142749
1631024005118,21893,160411,142780
1631024005128,21907,160473,142824
1631024005138,21927,160561,142891
1631024005148,21944,160599,142957
1631024005158,21965,160691,143001
1631024005168,21981,160738,143072
1631024005178,21990,160686,143025
1631024005188,21978,160559,142885
1631024005198,21966,160343,142722
1631024005208,21946,160194,142618
1631024005218,21915,160061,142528
1631024005228,21880,159954,142481
1631024005238,21866,159902,142449
1631024005248,21838,159864,142471
1631024005258,21826,159871,142503
1631024005268,21815,159865,142549
1631024005278,21804,159868,142559
1631024005288,21785,159861,142562
1631024005298,21775,159836,142554
1631024005308,21765,159823,142581
1631024005318,21763,159843,142602
1631024005328,21757,159846,142636
1631024005338,21759,159856,142637
1631024005348,21755,159837,142637
1631024005358,21748,159873,142675
1631024005368,21752,159874,142671
1631024005378,21765,159892,142705
1631024005388,21764,159955,142736
1631024005398,21785,159993,142795
1631024005408,21788,160057,142846
1631024005418,21794,160053,142879
1631024005428,21806,160134,142911
1631024005438,21821,160147,142940
1631024005448,21826,160155,142963
1631024005458,21836,160170,142955
1631024005468,21839,160186,142973
1631024005478,21849,160180,142994
1631024005488,21860,160231,143001
1631024005498,21876,160254,143054
1631024005508,21884,160310,143097
1631024005518,21899,160362,143118
1631024005528,21906,160394,143185
1631024005538,21924,160464,143251
1631024005548,21943,160524,143295
1631024005558,21955,160572,143355
1631024005568,21966,160608,143383
1631024005578,21981,160630,143408
1631024005588,21992,160665,143423
1631024005598,22008,160722,143492
1631024005608,22027,160795,143557
1631024005618,22041,160891,143621
1631024005628,22062,160963,143692
1631024005638,22082,161067,143791
1631024005648,22101,161136,143864
1631024005658,22122,161206,143938
1631024005668,22138,161254,143950
1631024005678,22158,161303,144024
1631024005688,22169,161345,144028
1631024005698,22191,161429,144108
1631024005708,22203,161508,144176
1631024005718,22233,161570,144256
1631024005728,22242,161644,144299
1631024005738,22264,161715,144368
1631024005748,22285,161777,144445
1631024005758,22315,161884,144527
1631024005768,22332,161955,144539
1631024005778,22336,161838,144443
1631024005788,22326,161621,144272
1631024005798,22310,161428,144098
1631024005808,22292,161265,143976
1631024005818,22282,161150,143906
1631024005828,22267,161102,143888
1631024005838,22251,161032,143825
1631024005848,22231,160993,143813
1631024005858,22213,160936,143806
1631024005868,22203,160909,143762
1631024005878,22182,160843,143719
1631024005888,22179,160813,143672
1631024005898,22174,160763,143658
1631024005908,22175,160757,143654
1631024005918,22170,160764,143654
1631024005928,22171,160780,143674
1631024005938,22177,160798,143694
1631024005948,22180,160814,143703
1631024005958,22180,160832,143722
1631024005968,22184,160839,143723
1631024005978,22191,160882,143757
1631024005988,22190,160929,143764
1631024005998,22201,160947,143811
1631024006008,22214,160980,143791
1631024006018,22215,160977,143799
1631024006028,22225,160974,143781
1631024006038,22227,160967,143757
1631024006048,22235,160960,143747
1631024006058,22246,160970,143715
1631024006068,22251,160937,143703
1631024006078,22255,160952,143707
1631024006088,22262,160966,143693
1631024006098,22263,160924,143661
1631024006108,22264,160905,143614
1631024006118,22274,160890,143600
1631024006128,22282,160912,143607
1631024006138,22291,160933,143606
1631024006148,22298,160928,143607
1631024006158,22309,160939,143609
1631024006168,22304,160952,143594
1631024006178,22324,160957,143570
1631024006188,22330,160958,143590
1631024006198,22339,160988,143575
1631024006208,22352,160998,143573
1631024006218,22360,161003,143587
1631024006228,22366,160998,143588
1631024006238,22378,161037,143593
1631024006248,22386,161050,143586
1631024006258,22396,161044,143578
1631024006268,22401,161025,143557
1631024006278,22414,161055,143552
1631024006288,22423,161098,143560
1631024006298,22438,161083,143570
1631024006308,22449,161118,143569
1631024006318,22455,161134,143594
1631024006328,22472,161213,143643
1631024006338,22484,161222,143630
1631024006348,22490,161173,143543
1631024006358,22489,160993,143390
1631024006368,22476,160814,143226
1631024006378,22467,160664,143091
1631024006388,22459,160543,143013
1631024006398,22450,160496,142975
1631024006408,22443,160445,142955
1631024006418,22432,160468,142985
1631024006428,22424,160478,143002
1631024006438,22421,160463,143004
1631024006448,22417,160435,142987
1631024006458,22408,160397,142979
1631024006468,22404,160370,142939
1631024006478,22404,160390,142951
1631024006488,22402,160394,142949
1631024006498,22407,160416,142941
1631024006508,22390,160380,142930
1631024006518,22401,160399,142929
1631024006528,22411,160378,142935
1631024006538,22406,160400,142936
1631024006548,22410,160455,142936
1631024006558,22412,160480,142968
1631024006568,22418,160471,142976
1631024006578,22427,160520,142981
1631024006588,22427,160526,142975
1631024006598,22430,160489,142929
1631024006608,22437,160504,142916
1631024006618,22435,160474,142878
1631024006628,22445,160423,142815
1631024006638,22438,160368,142770
1631024006648,22451,160362,142725
1631024006658,22451,160394,142738
1631024006668,22461,160369,142721
1631024006678,22461,160361,142716
1631024006688,22479,160364,142724
1631024006698,22478,160322,142665
1631024006708,22488,160351,142673
1631024006718,22489,160340,142664
1631024006728,22498,160358,142671
1631024006738,22506,160379,142682
1631024006748,22516,160392,142680
1631024006758,22525,160420,142669
1631024006768,22534,160449,142699
1631024006778,22548,160467,142714
1631024006788,22553,160489,142717
1631024006798,22565,160529,142717
1631024006808,22578,160573,142742
1631024006818,22581,160527,142717
1631024006828,22591,160565,142707
1631024006838,22595,160561,142693
1631024006848,22606,160539,142686
1631024006858,22604,160531,142662
1631024006868,22615,160538,142636
1631024006878,22620,160547,142634
1631024006888,22631,160567,142646
1631024006898,22640,160592,142638
1631024006908,22653,160619,142636
1631024006918,22659,160623,142649
1631024006928,22668,160576,142583
1631024006938,22667,160443,142459
1631024006948,22668,160282,142339
1631024006958,22663,160175,142256
1631024006968,22662,160092,142204
1631024006978,22650,160071,142178
1631024006988,22637,160005,142158
1631024006998,22637,160027,142200
1631024007008,22639,160061,142232
1631024007018,22634,160032,142260
1631024007028,22634,160082,142263
1631024007038,22626,160057,142249
1631024007048,22627,160052,142233
1631024007058,22625,160052,142251
1631024007068,22626,160042,142265
1631024007078,22632,160071,142284
1631024007088,22631,160131,142305
1631024007098,22633,160107,142306
1631024007108,22629,160118,142297
1631024007118,22642,160170,142325
1631024007128,22637,160183,142371
1631024007138,22656,160252,142398
1631024007148,22655,160295,142417
1631024007158,22665,160327,142463
1631024007168,22662,160362,142474
1631024007178,22667,160382,142476
1631024007188,22677,160381,142475
1631024007198,22681,160368,142490
1631024007208,22685,160366,142451
1631024007218,22689,160374,142453
1631024007228,22690,160403,142453
1631024007238,22694,160399,142446
1631024007248,22700,160403,142425
1631024007258,22704,160371,142435
1631024007268,22706,160387,142427
1631024007278,22710,160387,142422
1631024007288,22713,160373,142395
1631024007298,22718,160400,142391
1631024007308,22739,160409,142406
1631024007318,22731,160412,142390
1631024007328,22740,160440,142407
1631024007338,22750,160451,142401
1631024007348,22752,160463,142419
1631024007358,22761,160496,142431
1631024007368,22769,160516,142442
1631024007378,22784,160595,142481
1631024007388,22792,160634,142529
1631024007398,22796,160679,142570
1631024007408,22813,160734,142583
1631024007418,22818,160762,142611
1631024007428,22828,160782,142615
1631024007438,22837,160797,142612
1631024007448,22840,160800,142622
1631024007458,22853,160848,142637
1631024007468,22857,160862,142626
1631024007478,22858,160882,142644
1631024007488,22870,160916,142643
1631024007498,22886,160938,142655
1631024007508,22886,160977,142688
1631024007518,22900,161022,142720
1631024007528,22906,161032,142697
1631024007538,22907,160948,142622
1631024007548,22903,160798,142495
1631024007558,22890,160657,142369
1631024007568,22889,160556,142296
1631024007578,22877,160487,142248
1631024007588,22865,160421,142228
1631024007598,22853,160363,142206
1631024007608,22843,160380,142227
1631024007618,22836,160395,142269
1631024007628,22814,160425,142286
1631024007638,22815,160405,142300
1631024007648,22806,160409,142297
1631024007658,22794,160402,142264
1631024007668,22782,160408,142277
1631024007678,22779,160414,142306
1631024007688,22774,160448,142342
1631024007698,22770,160485,142352
1631024007708,22770,160471,142385
1631024007718,22762,160484,142369
1631024007728,22753,160499,142398
1631024007738,22757,160551,142428
1631024007748,22756,160600,142470
1631024007758,22758,160641,142511
1631024007768,22763,160690,142551
1631024007778,22761,160715,142559
1631024007788,22763,160740,142580
1631024007798,22767,160766,142586
1631024007808,22773,160781,142582
1631024007818,22773,160748,142571
1631024007828,22765,160710,142521
1631024007838,22765,160709,142521
1631024007848,22765,160717,142498
1631024007858,22761,160696,142492
1631024007868,22763,160707,142517
1631024007878,22766,160714,142499
1631024007888,22764,160709,142478
1631024007898,22766,160704,142477
1631024007908,22765,160695,142458
1631024007918,22767,160691,142460
1631024007928,22769,160701,142462
1631024007938,22772,160716,142465
1631024007948,22779,160743,142487
1631024007958,22786,160797,142515
1631024007968,22797,160842,142549
1631024007978,22803,160862,142557
1631024007988,22802,160871,142602
1631024007998,22811,160943,142623
1631024008008,22820,160955,142638
1631024008018,22827,160980,142665
1631024008028,22827,160968,142647
1631024008038,22828,160993,142630
1631024008048,22837,160975,142621
1631024008058,22834,160978,142607
1631024008068,22844,160971,142614
1631024008078,22841,160949,142581
1631024008088,22843,160935,142584
1631024008098,22853,160966,142577
1631024008108,22864,160983,142579
1631024008118,22877,160989,142566
1631024008128,22877,161036,142614
1631024008138,22888,161060,142599
1631024008148,22888,161085,142619
1631024008158,22904,161149,142682
1631024008168,22913,161161,142676
1631024008178,22911,161028,142563
1631024008188,22897,160843,142405
1631024008198,22885,160681,142266
1631024008208,22871,160548,142191
1631024008218,22856,160449,142121
1631024008228,22833,160360,142094
1631024008238,22816,160319,142109
1631024008248,22795,160349,142124
1631024008258,22780,160333,142135
1631024008268,22758,160311,142109
1631024008278,22739,160258,142091
1631024008288,22715,160227,142056
1631024008298,22705,160175,142058
1631024008308,22694,160173,142065
1631024008318,22682,160189,142074
1631024008328,22668,160190,142095
1631024008338,22656,160201,142085
1631024008348,22644,160171,142107
1631024008358,22639,160197,142102
1631024008368,22633,160213,142141
1631024008378,22630,160255,142170
1631024008388,22630,160309,142223
1631024008398,22626,160338,142267
1631024008408,22623,160349,142299
1631024008418,22625,160339,142267
1631024008428,22616,160335,142234
1631024008438,22611,160290,142217
1631024008448,22610,160269,142165
1631024008458,22592,160185,142116
1631024008468,22594,160151,142086
1631024008478,22580,160124,142037
1631024008488,22585,160119,142001
1631024008498,22577,160123,142025
1631024008508,22579,160137,142024
1631024008518,22585,160137,142056
1631024008528,22585,160167,142084
1631024008538,22589,160177,142122
1631024008548,22588,160243,142133
1631024008558,22592,160265,142171
1631024008568,22598,160263,142179
1631024008578,22601,160276,142210
1631024008588,22598,160297,142224
1631024008598,22608,160287,142213
1631024008608,22611,160287,142209
1631024008618,22602,160271,142186
1631024008628,22601,160240,142140
1631024008638,22588,160206,142113
1631024008648,22592,160177,142076
1631024008658,22594,160180,142036
1631024008668,22591,160123,142036
1631024008678,22591,160129,142000
1631024008688,22592,160095,141968
1631024008698,22592,160120,141966
1631024008708,22595,160113,141982
1631024008718,22602,160128,141988
1631024008728,22607,160191,142024
1631024008738,22610,160187,142052
1631024008748,22614,160192,142053
1631024008758,22617,160242,142086
1631024008768,22638,160324,142139
1631024008778,22634,160287,142119
1631024008788,22624,160211,142012
1631024008798,22608,160028,141841
1631024008808,22591,159842,141692
1631024008818,22573,159640,141574
1631024008828,22545,159494,141476
1631024008838,22521,159417,141422
1631024008848,22494,159383,141421
1631024008858,22474,159343,141417
1631024008868,22451,159318,141426
1631024008878,22429,159288,141422
1631024008888,22402,159249,141393
1631024008898,22381,159188,141361
1631024008908,22359,159138,141354
1631024008918,22348,159108,141310
1631024008928,22325,159118,141334
1631024008938,22316,159091,141332
1631024008948,22299,159089,141323
1631024008958,22298,159038,141295
1631024008968,22281,159016,141288
1631024008978,22266,158979,141272
1631024008988,22260,158994,141257
1631024008998,22257,159007,141270
1631024009008,22260,159006,141277
1631024009018,22249,159011,141268
1631024009028,22249,158999,141264
1631024009038,22237,158935,141243
1631024009048,22235,158921,141193
1631024009058,22232,158865,141139
1631024009068,22223,158842,141129
1631024009078,22222,158791,141095
1631024009088,22223,158795,141094
1631024009098,22220,158764,141080
1631024009108,22223,158744,141075
1631024009118,22212,158770,141048
1631024009128,22217,158750,141050
1631024009138,22217,158729,141045
1631024009148,22218,158754,141062
1631024009158,22221,158733,141031
1631024009168,22216,158712,141032
1631024009178,22215,158703,140984
1631024009188,22211,158666,140951
1631024009198,22213,158635,140924
1631024009208,22207,158584,140875
1631024009218,22206,158568,140854
1631024009228,22208,158499,140794
1631024009238,22204,158432,140730
1631024009248,22196,158362,140617
1631024009258,22184,158267,140497
1631024009268,22171,158130,140378
1631024009278,22164,157968,140217
1631024009288,22153,157869,140096
1631024009298,22151,157761,139999
1631024009308,22141,157665,139883
1631024009318,22136,157566,139792
1631024009328,22126,157426,139650
1631024009338,22120,157303,139527
1631024009348,22120,157228,139427
1631024009358,22122,157161,139362
1631024009368,22116,157086,139285
1631024009378,22122,157017,139210
1631024009388,22113,156877,139189
1631024009398,22101,156656,138972
1631024009408,22076,156313,138704
1631024009418,22062,156009,138433
1631024009428,22016,155671,138153
1631024009438,21980,155449,137966
1631024009448,21943,155257,137808
1631024009458,21913,155122,137736
1631024009468,21886,155073,137694
1631024009478,21885,155185,137842
1631024009488,21844,154968,137630
1631024009498,21817,154866,137546
1631024009508,21773,154644,137372
1631024009518,21765,154641,137430
1631024009528,21754,154691,137454
1631024009538,21748,154711,137518
1631024009548,21737,154630,137402
1631024009558,21724,154636,137456
1631024009568,21713,154593,137404
1631024009578,21699,154570,137399
1631024009588,21696,154544,137368
1631024009598,21681,154533,137393
1631024009608,21673,154526,137386
1631024009618,21669,154540,137363
1631024009628,21671,154533,137362
1631024009638,21666,154545,137352
1631024009648,21671,154546,137367
1631024009658,21666,154500,137323
1631024009668,21660,154471,137287
1631024009678,21658,154466,137258
1631024009688,21662,154423,137214
1631024009698,21655,154406,137195
1631024009708,21653,154407,137170
1631024009718,21655,154360,137143
1631024009728,21649,154351,137133
1631024009738,21656,154305,137107
1631024009748,21658,154307,137089
1631024009758,21659,154289,137061
1631024009768,21657,154279,137078
1631024009778,21655,154276,137031
1631024009788,21657,154273,137025
1631024009798,21660,154251,137007
1631024009808,21673,154261,137035
1631024009818,21665,154298,137038
1631024009828,21673,154312,137057
1631024009838,21682,154294,137052
1631024009848,21684,154335,137066
1631024009858,21698,154338,137067
1631024009868,21703,154364,137067
1631024009878,21711,154401,137105
1631024009888,21724,154437,137132
1631024009898,21728,154437,137136
1631024009908,21732,154466,137138
1631024009918,21743,154485,137139
1631024009928,21748,154500,137130
1631024009938,21754,154523,137151
1631024009948,21762,154508,137168
1631024009958,21773,154562,137196
1631024009968,21781,154585,137211
1631024009978,21788,154621,137225
1631024009988,21806,154651,137262
1631024009998,21809,154684,137288
1631024010008,21822,154750,137332
1631024010018,21840,154797,137364
1631024010028,21849,154816,137399
1631024010038,21857,154846,137387
1631024010048,21861,154786,137328
1631024010058,21847,154647,137229
1631024010068,21842,154492,137122
1631024010078,21834,154449,137089
1631024010088,21811,154366,137077
1631024010098,21791,154337,137110
1631024010108,21775,154332,137098
1631024010118,21765,154309,137116
1631024010128,21755,154341,137153
1631024010138,21747,154330,137181
1631024010148,21732,154286,137160
1631024010158,21710,154243,137129
1631024010168,21700,154199,137093
1631024010178,21690,154151,137079
1631024010188,21684,154177,137085
1631024010198,21682,154160,137079
1631024010208,21674,154148,137080
1631024010218,21663,154079,137009
1631024010228,21659,154103,137047
1631024010238,21658,154027,136989
1631024010248,21656,154056,137010
1631024010258,21652,154077,137024
1631024010268,21664,154173,137088
1631024010278,21669,154193,137107
1631024010288,21680,154245,137160
1631024010298,21681,154259,137176
1631024010308,21687,154297,137193
1631024010318,21688,154304,137190
1631024010328,21696,154275,137172
1631024010338,21697,154291,137173
1631024010348,21696,154304,137184
1631024010358,21705,154324,137228
1631024010368,21711,154378,137282
1631024010378,21730,154457,137351
1631024010388,21733,154557,137423
1631024010398,21755,154630,137490
1631024010408,21758,154690,137566
1631024010418,21775,154741,137603
1631024010428,21773,154741,137613
1631024010438,21782,154773,137631
1631024010448,21783,154773,137599
1631024010458,21783,154751,137579
1631024010468,21781,154690,137520
1631024010478,21785,154644,137477
1631024010488,21789,154665,137455
1631024010498,21795,154657,137470
1631024010508,21799,154675,137472
1631024010518,21810,154700,137504
1631024010528,21824,154741,137520
1631024010538,21833,154778,137571
1631024010548,21847,154818,137599
1631024010558,21857,154855,137606
1631024010568,21869,154858,137605
1631024010578,21877,154880,137602
1631024010588,21885,154891,137596
1631024010598,21893,154902,137618
1631024010608,21897,154918,137600
1631024010618,21914,154943,137619
1631024010628,21919,154936,137641
1631024010638,21929,154962,137639
1631024010648,21937,155034,137671
1631024010658,21952,155058,137676
1631024010668,21959,155066,137698
1631024010678,21964,155077,137677
1631024010688,21975,155153,137714
1631024010698,21988,155213,137782
1631024010708,22003,155221,137766
1631024010718,22005,155136,137709
1631024010728,21988,155017,137576
1631024010738,21982,154883,137465
1631024010748,21981,154814,137411
1631024010758,21968,154722,137358
1631024010768,21964,154729,137399
1631024010778,21954,154744,137427
1631024010788,21938,154703,137413
1631024010798,21922,154573,137301
1631024010808,21899,154474,137186
1631024010818,21881,154341,137070
1631024010828,21872,154268,137006
1631024010838,21859,154174,136926
1631024010848,21851,154136,136906
1631024010858,21850,154104,136841
1631024010868,21851,154035,136772
1631024010878,21837,153981,136736
1631024010888,21835,153977,136713
1631024010898,21829,153921,136674
1631024010908,21824,153880,136629
1631024010918,21814,153847,136591
1631024010928,21818,153847,136574
1631024010938,21822,153819,136551
1631024010948,21821,153817,136530
1631024010958,21824,153806,136499
1631024010968,21828,153769,136470
1631024010978,21833,153771,136454
1631024010988,21835,153732,136405
1631024010998,21834,153714,136365
1631024011008,21836,153654,136319
1631024011018,21838,153617,136290
1631024011028,21841,153605,136269
1631024011038,21831,153608,136252
1631024011048,21852,153621,136236
1631024011058,21849,153600,136235
1631024011068,21860,153584,136216
1631024011078,21845,153522,136139
1631024011088,21858,153611,136201
1631024011098,21854,153510,136096
1631024011108,21859,153491,136081
1631024011118,21858,153450,136019
1631024011128,21864,153427,135965
1631024011138,21855,153368,135916
1631024011148,21878,153474,135998
1631024011158,21886,153490,136036
1631024011168,21923,153674,136192
1631024011178,21884,153359,135861
1631024011188,21916,153516,136001
1631024011198,21896,153335,135810
1631024011208,21909,153367,135833
1631024011218,21909,153273,135740
1631024011228,21916,153274,135714
1631024011238,21915,153257,135673
1631024011248,21926,153290,135680
1631024011258,21928,153265,135631
1631024011268,21937,153223,135603
1631024011278,21946,153231,135599
1631024011288,21955,153238,135584
1631024011298,21960,153235,135574
1631024011308,21973,153261,135572
1631024011318,21979,153222,135527
1631024011328,21980,153110,135374
1631024011338,21971,152869,135167
1631024011348,21946,152582,134888
1631024011358,21936,152357,134697
1631024011368,21928,152168,134521
1631024011378,21913,152073,134445
1631024011388,21905,151989,134379
1631024011398,21890,151817,134250
1631024011408,21890,151747,134200
1631024011418,21846,151458,133926
1631024011428,21870,151559,133996
1631024011438,21862,151428,133840
1631024011448,21813,150989,133476
1631024011458,21819,150985,133439
1631024011468,21804,150801,133258
1631024011478,21803,150691,133188
1631024011488,21790,150579,133043
1631024011498,21789,150547,133001
1631024011508,21798,150559,133022
1631024011518,21802,150553,133015
1631024011528,21805,150568,133019
1631024011538,21807,150532,132998
1631024011548,21808,150565,133000
1631024011558,21820,150620,133034
1631024011568,21833,150696,133121
1631024011578,21851,150735,133160
1631024011588,21857,150782,133184
1631024011598,21868,150765,133149
1631024011608,21867,150709,133132
1631024011618,21870,150730,133145
1631024011628,21880,150739,133148
1631024011638,21889,150770,133173
1631024011648,21892,150740,133149
1631024011658,21909,150856,133241
1631024011668,21913,150880,133247
1631024011678,21928,150934,133307
1631024011688,21937,150967,133353
1631024011698,21956,151012,133403
1631024011708,21961,151104,133431
1631024011718,21971,151115,133486
1631024011728,21982,151146,133504
1631024011738,21987,151180,133515
1631024011748,21997,151184,133520
1631024011758,22000,151156,133517
1631024011768,22008,151164,133500
1631024011778,22012,151160,133474
1631024011788,22018,151093,133468
1631024011798,22021,151119,133457
1631024011808,22023,151096,133452
1631024011818,22021,151055,133404
1631024011828,22024,151076,133397
1631024011838,22028,151060,133373
1631024011848,22037,151077,133379
1631024011858,22041,151076,133386
1631024011868,22046,151086,133382
1631024011878,22052,151083,133376
1631024011888,22059,151059,133378
1631024011898,22060,151032,133312
1631024011908,22063,150927,133220
1631024011918,22056,150737,133043
1631024011928,22048,150532,132863
1631024011938,22043,150389,132770
1631024011948,22039,150306,132724
1631024011958,22036,150232,132675
1631024011968,22045,150276,132755
1631024011978,22051,150339,132820
1631024011988,22052,150410,132900
1631024011998,22044,150444,132963
1631024012008,22043,150419,132951
1631024012018,22032,150338,132884
1631024012028,22019,150249,132802
1631024012038,22013,150236,132797
1631024012048,22010,150229,132827
1631024012058,22003,150216,132850
1631024012068,22005,150262,132867
1631024012078,22001,150267,132871
1631024012088,21995,150271,132883
1631024012098,21986,150253,132877
1631024012108,21987,150257,132889
1631024012118,21984,150277,132884
1631024012128,21976,150284,132881
1631024012138,21978,150257,132877
1631024012148,21982,150298,132890
1631024012158,21981,150279,132877
1631024012168,21981,150255,132854
1631024012178,21977,150239,132823
1631024012188,21970,150199,132751
1631024012198,21973,150114,132703
1631024012208,21966,150106,132671
1631024012218,21974,150083,132664
1631024012228,21970,150049,132626
1631024012238,21973,150039,132634
1631024012248,21971,149993,132579
1631024012258,21963,149938,132533
1631024012268,21969,149907,132509
1631024012278,21971,149917,132503
1631024012288,21972,149892,132458
1631024012298,21976,149875,132460
1631024012308,21976,149839,132414
1631024012318,21974,149820,132373
1631024012328,21967,149709,132277
1631024012338,21957,149674,132224
1631024012348,21966,149613,132193
1631024012358,21967,149579,132154
1631024012368,21961,149558,132120
1631024012378,21966,149547,132094
1631024012388,21966,149565,132090
1631024012398,21974,149566,132114
1631024012408,21979,149614,132145
1631024012418,21986,149637,132163
1631024012428,21995,149659,132181
1631024012438,22005,149755,132224
1631024012448,22024,149825,132328
1631024012458,22042,149938,132481
1631024012468,22065,150072,132577
1631024012478,22068,150115,132615
1631024012488,22070,150031,132537
1631024012498,22061,149829,132381
1631024012508,22034,149618,132202
1631024012518,22018,149457,132060
1631024012528,22001,149307,131952
1631024012538,21986,149258,131935
1631024012548,21978,149244,131960
1631024012558,21976,149252,131973
1631024012568,21963,149286,132022
1631024012578,21961,149234,132001
1631024012588,21937,149159,131914
1631024012598,21927,149100,131907
1631024012608,21914,149090,131908
1631024012618,21916,149105,131925
1631024012628,21915,149154,131985
1631024012638,21908,149174,131991
1631024012648,21898,149134,131974
1631024012658,21890,149088,131940
1631024012668,21880,149033,131904
1631024012678,21863,148971,131879
1631024012688,21875,149003,131883
1631024012698,21851,148884,131821
1631024012708,21851,148902,131817
1631024012718,21843,148835,131751
1631024012728,21859,148914,131815
1631024012738,21841,148805,131736
1631024012748,21840,148736,131683
1631024012758,21830,148626,131560
1631024012768,21805,148398,131320
1631024012778,21805,148299,131218
1631024012788,21784,148097,131049
1631024012798,21786,147993,130955
1631024012808,21777,147905,130866
1631024012818,21774,147902,130855
1631024012828,21782,147907,130846
1631024012838,21778,147909,130844
1631024012848,21783,147884,130827
1631024012858,21782,147843,130796
1631024012868,21784,147852,130762
1631024012878,21778,147758,130673
1631024012888,21771,147687,130617
1631024012898,21768,147628,130552
1631024012908,21767,147619,130543
1631024012918,21767,147655,130565
1631024012928,21770,147707,130610
1631024012938,21766,147693,130582
1631024012948,21778,147693,130565
1631024012958,21779,147714,130600
1631024012968,21784,147770,130641
1631024012978,21797,147794,130670
1631024012988,21799,147797,130683
1631024012998,21793,147793,130677
1631024013008,21806,147748,130651
1631024013018,21781,147684,130550
1631024013028,21791,147609,130503
1631024013038,21787,147548,130466
1631024013048,21777,147460,130356
1631024013058,21774,147332,130231
1631024013068,21777,147234,130143
1631024013078,21780,147151,130064
1631024013088,21779,147064,129986
1631024013098,21772,146917,129926
1631024013108,21763,146808,129806
1631024013118,21736,146605,129659
1631024013128,21697,146415,129507
1631024013138,21676,146309,129417
1631024013148,21668,146228,129367
1631024013158,21650,146239,129403
1631024013168,21627,146170,129348
1631024013178,21608,146095,129264
1631024013188,21590,146026,129241
1631024013198,21570,146035,129249
1631024013208,21566,145987,129210
1631024013218,21531,145844,129083
1631024013228,21530,145890,129132
1631024013238,21502,145809,129070
1631024013248,21493,145788,129064
1631024013258,21482,145780,129050
1631024013268,21469,145734,129002
1631024013278,21436,145553,128867
1631024013288,21428,145462,128778
1631024013298,21417,145511,128815
1631024013308,21415,145574,128879
1631024013318,21411,145497,128809
1631024013328,21404,145487,128777
1631024013338,21395,145478,128766
1631024013348,21394,145435,128722
1631024013358,21390,145446,128720
1631024013368,21384,145399,128696
1631024013378,21388,145423,128706
1631024013388,21382,145405,128693
1631024013398,21392,145443,128726
1631024013408,21396,145481,128745
1631024013418,21403,145494,128739
1631024013428,21402,145471,128765
1631024013438,21399,145507,128772
1631024013448,21412,145551,128818
1631024013458,21411,145528,128813
1631024013468,21419,145595,128863
1631024013478,21434,145654,128918
1631024013488,21442,145726,128980
1631024013498,21452,145792,129050
1631024013508,21462,145900,129145
1631024013518,21476,146002,129231
1631024013528,21490,146131,129342
1631024013538,21493,146203,129408
1631024013548,21505,146315,129498
1631024013558,21512,146356,129590
1631024013568,21534,146500,129682
1631024013578,21540,146587,129753
1631024013588,21550,146654,129822
1631024013598,21552,146688,129831
1631024013608,21570,146708,129883
1631024013618,21571,146711,129839
1631024013628,21572,146726,129863
1631024013638,21585,146737,129864
1631024013648,21586,146695,129828
1631024013658,21594,146697,129831
1631024013668,21596,146705,129820
1631024013678,21602,146667,129788
1631024013688,21614,146701,129796
1631024013698,21635,146829,129939
1631024013708,21651,146876,129983
1631024013718,21653,146879,129973
1631024013728,21648,146781,129840
1631024013738,21638,146537,129613
1631024013748,21616,146291,129389
1631024013758,21592,146101,129252
1631024013768,21579,145996,129148
1631024013778,21566,145965,129135
1631024013788,21549,145887,129101
1631024013798,21541,145842,129064
1631024013808,21524,145816,129050
1631024013818,21513,145821,129073
1631024013828,21509,145806,129101
1631024013838,21496,145822,129104
1631024013848,21495,145829,129135
1631024013858,21491,145853,129176
1631024013868,21487,145898,129223
1631024013878,21484,145952,129279
1631024013888,21481,146000,129328
1631024013898,21485,146060,129403
1631024013908,21485,146086,129420
1631024013918,21479,146095,129463
1631024013928,21487,146158,129526
1631024013938,21485,146234,129599
1631024013948,21497,146331,129684
1631024013958,21504,146417,129788
1631024013968,21518,146532,129896
1631024013978,21536,146678,130027
1631024013988,21540,146784,130127
1631024013998,21548,146861,130186
1631024014008,21558,146858,130212
1631024014018,21559,146918,130243
1631024014028,21567,146941,130288
1631024014038,21570,147024,130315
1631024014048,21575,147030,130347
1631024014058,21579,147061,130367
1631024014068,21579,147117,130387
1631024014078,21589,147154,130417
1631024014088,21588,147183,130461
1631024014098,21591,147197,130468
1631024014108,21599,147219,130490
1631024014118,21591,147239,130466
1631024014128,21596,147249,130475
1631024014138,21605,147267,130500
1631024014148,21595,147326,130522
1631024014158,21606,147357,130550
1631024014168,21606,147406,130567
1631024014178,21613,147428,130594
1631024014188,21618,147467,130631
1631024014198,21625,147497,130663
1631024014208,21646,147544,130673
1631024014218,21643,147572,130711
1631024014228,21648,147622,130724
1631024014238,21655,147656,130757
1631024014248,21664,147712,130778
1631024014258,21675,147709,130810
1631024014268,21669,147750,130838
1631024014278,21684,147774,130850
1631024014288,21686,147798,130844
1631024014298,21689,147829,130849
1631024014308,21695,147810,130836
1631024014318,21697,147825,130833
1631024014328,21698,147824,130803
1631024014338,21698,147795,130761
1631024014348,21699,147761,130720
1631024014358,21706,147767,130692
1631024014368,21706,147760,130685
1631024014378,21710,147722,130608
1631024014388,21694,147552,130448
1631024014398,21680,147370,130265
1631024014408,21669,147186,130107
1631024014418,21656,147039,130006
1631024014428,21639,146932,129894
1631024014438,21630,146798,129806
1631024014448,21614,146722,129762
1631024014458,21602,146670,129693
1631024014468,21577,146618,129668
1631024014478,21580,146578,129646
1631024014488,21568,146507,129575
1631024014498,21559,146448,129531
1631024014508,21553,146430,129496
1631024014518,21543,146395,129461
1631024014528,21543,146354,129459
1631024014538,21536,146348,129460
1631024014548,21532,146341,129427
1631024014558,21525,146291,129375
1631024014568,21522,146249,129357
1631024014578,21521,146231,129322
1631024014588,21520,146225,129309
1631024014598,21521,146223,129321
1631024014608,21516,146238,129323
1631024014618,21524,146265,129334
1631024014628,21523,146258,129320
1631024014638,21526,146170,129251
1631024014648,21513,146140,129185
1631024014658,21519,146119,129127
1631024014668,21517,146038,129105
1631024014678,21521,145990,129020
1631024014688,21516,145939,128998
1631024014698,21526,145949,128968
1631024014708,21525,145935,128947
1631024014718,21532,145892,128909
1631024014728,21533,145908,128911
1631024014738,21540,145872,128889
1631024014748,21541,145841,128847
1631024014758,21540,145785,128796
1631024014768,21537,145741,128763
1631024014778,21544,145738,128722
1631024014788,21550,145692,128670
1631024014798,21548,145678,128657
1631024014808,21550,145658,128609
1631024014818,21555,145621,128591
1631024014828,21562,145626,128581
1631024014838,21570,145616,128576
1631024014848,21571,145617,128556
1631024014858,21580,145603,128553
1631024014868,21590,145626,128567
1631024014878,21595,145656,128575
1631024014888,21600,145649,128574
1631024014898,21612,145653,128546
1631024014908,21613,145631,128522
1631024014918,21620,145640,128511
1631024014928,21634,145659,128523
1631024014938,21636,145683,128552
1631024014948,21651,145705,128575
1631024014958,21657,145763,128618
1631024014968,21668,145802,128643
1631024014978,21679,145847,128676
1631024014988,21687,145858,128680
1631024014998,21690,145781,128588
1631024015008,21685,145653,128493
1631024015018,21672,145522,128374
1631024015028,21670,145377,128282
1631024015038,21654,145279,128198
1631024015048,21638,145220,128141
1631024015058,21632,145178,128147
1631024015068,21624,145203,128158
1631024015078,21626,145213,128179
1631024015088,21616,145222,128232
1631024015098,21617,145249,128228
1631024015108,21608,145227,128223
1631024015118,21601,145215,128225
1631024015128,21595,145248,128214
1631024015138,21597,145220,128207
1631024015148,21591,145224,128210
1631024015158,21587,145230,128221
1631024015168,21580,145235,128208
1631024015178,21576,145202,128205
1631024015188,21576,145217,128215
1631024015198,21578,145212,128209
1631024015208,21576,145240,128203
1631024015218,21578,145277,128235
1631024015228,21579,145307,128257
1631024015238,21588,145328,128259
1631024015248,21587,145307,128232
1631024015258,21597,145337,128256
1631024015268,21592,145333,128272
1631024015278,21602,145407,128289
1631024015288,21609,145399,128309
1631024015298,21614,145480,128320
1631024015308,21620,145482,128357
1631024015318,21633,145522,128395
1631024015328,21634,145557,128420
1631024015338,21641,145583,128435
1631024015348,21639,145602,128441
1631024015358,21645,145643,128475
1631024015368,21653,145658,128507
1631024015378,21657,145711,128513
1631024015388,21664,145724,128511
1631024015398,21670,145750,128543
1631024015408,21675,145793,128563
1631024015418,21686,145782,128593
1631024015428,21691,145816,128583
1631024015438,21690,145853,128599
1631024015448,21699,145875,128596
1631024015458,21692,145881,128596
1631024015468,21712,145890,128595
1631024015478,21712,145876,128587
1631024015488,21714,145888,128592
1631024015498,21723,145878,128581
1631024015508,21729,145934,128591
1631024015518,21732,145924,128612
1631024015528,21742,145958,128609
1631024015538,21743,145966,128633
1631024015548,21758,145989,128608
1631024015558,21754,146004,128637
1631024015568,21764,146036,128651
1631024015578,21773,146067,128673
1631024015588,21783,146120,128713
1631024015598,21797,146198,128756
1631024015608,21799,146214,128780
1631024015618,21813,146195,128768
1631024015628,21805,146138,128680
1631024015638,21800,145996,128577
1631024015648,21798,145907,128525
1631024015658,21797,145855,128454
1631024015668,21795,145816,128461
1631024015678,21787,145798,128454
1631024015688,21783,145848,128506
1631024015698,21785,145891,128563
1631024015708,21782,145897,128612
1631024015718,21778,145925,128600
1631024015728,21777,145937,128627
1631024015738,21771,145949,128652
1631024015748,21763,145991,128689
1631024015758,21777,146058,128755
1631024015768,21779,146116,128803
1631024015778,21775,146138,128830
1631024015788,21775,146187,128864
1631024015798,21777,146209,128887
1631024015808,21773,146235,128905
1631024015818,21776,146271,128958
1631024015828,21779,146298,128963
1631024015838,21771,146321,128988
1631024015848,21781,146393,129036
1631024015858,21781,146451,129077
1631024015868,21787,146487,129099
1631024015878,21788,146512,129120
1631024015888,21802,146561,129170
1631024015898,21795,146612,129194
1631024015908,21798,146606,129182
1631024015918,21794,146642,129188
1631024015928,21800,146653,129193
1631024015938,21802,146692,129231
1631024015948,21809,146734,129263
1631024015958,21812,146784,129291
1631024015968,21817,146844,129348
1631024015978,21817,146875,129386
1631024015988,21817,146935,129421
1631024015998,21827,147029,129475
1631024016008,21825,147092,129537
1631024016018,21830,147204,129586
1631024016028,21833,147292,129653
1631024016038,21839,147375,129704
1631024016048,21843,147424,129747
1631024016058,21837,147538,129806
1631024016068,21838,147583,129859
1631024016078,21841,147726,129932
1631024016088,21850,147779,130000
1631024016098,21852,147847,130038
1631024016108,21861,147901,130055
1631024016118,21865,147923,130079
1631024016128,21880,148017,130153
1631024016138,21876,147985,130097
1631024016148,21884,148046,130107
1631024016158,21881,147989,130080
1631024016168,21889,148017,130078
1631024016178,21894,148030,130059
1631024016188,21895,148035,130061
1631024016198,21905,148042,130020
1631024016208,21899,148030,129986
1631024016218,21907,147977,129949
1631024016228,21925,147990,129946
1631024016238,21913,147950,129915
1631024016248,21927,147969,129912
1631024016258,21934,147979,129918
1631024016268,21953,148022,129929
1631024016278,21956,148035,129950
1631024016288,21966,148045,129935
1631024016298,21972,148000,129888
1631024016308,21971,147886,129771
1631024016318,21966,147724,129660
1631024016328,21961,147589,129533
1631024016338,21954,147474,129450
1631024016348,21943,147414,129411
1631024016358,21944,147379,129408
1631024016368,21945,147362,129416
1631024016378,21946,147417,129478
1631024016388,21942,147425,129522
1631024016398,21942,147450,129533
1631024016408,21939,147473,129566
1631024016418,21931,147480,129571
1631024016428,21927,147492,129622
1631024016438,21923,147515,129612
1631024016448,21917,147527,129639
1631024016458,21912,147528,129637
1631024016468,21912,147506,129643
1631024016478,21907,147513,129638
1631024016488,21897,147521,129659
1631024016498,21901,147543,129652
1631024016508,21899,147540,129674
1631024016518,21901,147581,129715
1631024016528,21898,147623,129752
1631024016538,21912,147704,129804
1631024016548,21909,147733,129843
1631024016558,21914,147756,129859
1631024016568,21912,147782,129878
1631024016578,21916,147832,129907
1631024016588,21924,147869,129944
1631024016598,21934,147865,129965
1631024016608,21929,147886,129995
1631024016618,21936,147938,130015
1631024016628,21938,147943,130039
1631024016638,21943,147987,130072
1631024016648,21945,148003,130073
1631024016658,21954,148047,130110
1631024016668,21960,148077,130128
1631024016678,21963,148088,130150
1631024016688,21968,148111,130172
1631024016698,21968,148132,130192
1631024016708,21972,148136,130208
1631024016718,21973,148163,130217
1631024016728,21979,148181,130205
1631024016738,21982,148199,130229
1631024016748,21984,148231,130277
1631024016758,21993,148264,130302
1631024016768,22000,148285,130324
1631024016778,22009,148329,130346
1631024016788,22014,148366,130371
1631024016798,22014,148397,130409
1631024016808,22021,148455,130467
1631024016818,22031,148543,130514
1631024016828,22040,148608,130561
1631024016838,22047,148637,130587
1631024016848,22055,148683,130625
1631024016858,22063,148731,130674
1631024016868,22069,148738,130708
1631024016878,22075,148831,130748
1631024016888,22087,148873,130760
1631024016898,22088,148904,130826
1631024016908,22093,148933,130806
1631024016918,22100,148968,130858
1631024016928,22103,148993,130876
1631024016938,22113,149009,130902
1631024016948,22121,149035,130942
1631024016958,22123,149108,130964
1631024016968,22126,149068,130901
1631024016978,22122,148932,130787
1631024016988,22111,148764,130638
1631024016998,22094,148617,130526
1631024017008,22085,148488,130458
1631024017018,22076,148491,130438
1631024017028,22070,148477,130440
1631024017038,22065,148457,130458
1631024017048,22057,148481,130486
1631024017058,22040,148524,130526
1631024017068,22044,148548,130552
1631024017078,22021,148538,130596
1631024017088,22016,148583,130623
1631024017098,22007,148612,130650
1631024017108,21996,148604,130656
1631024017118,21987,148604,130657
1631024017128,21981,148593,130676
1631024017138,21974,148599,130684
1631024017148,21970,148617,130705
1631024017158,21961,148613,130713
1631024017168,21955,148646,130710
1631024017178,21948,148632,130718
1631024017188,21951,148673,130764
1631024017198,21942,148678,130764
1631024017208,21946,148717,130762
1631024017218,21940,148715,130784
1631024017228,21939,148727,130792
1631024017238,21940,148711,130776
1631024017248,21942,148699,130757
1631024017258,21940,148703,130759
1631024017268,21937,148680,130746
1631024017278,21934,148685,130760
1631024017288,21933,148683,130731
1631024017298,21936,148657,130726
1631024017308,21934,148659,130708
1631024017318,21931,148642,130711
1631024017328,21926,148645,130717
1631024017338,21929,148648,130700
1631024017348,21934,148645,130709
1631024017358,21927,148643,130688
1631024017368,21926,148628,130691
1631024017378,21923,148641,130678
1631024017388,21931,148613,130655
1631024017398,21921,148610,130652
1631024017408,21926,148596,130615
1631024017418,21924,148572,130620
1631024017428,21927,148572,130615
1631024017438,21928,148581,130614
1631024017448,21931,148603,130629
1631024017458,21933,148620,130631
1631024017468,21938,148612,130640
1631024017478,21935,148605,130627
1631024017488,21947,148612,130643
1631024017498,21943,148616,130631
1631024017508,21945,148608,130610
1631024017518,21955,148653,130650
1631024017528,21952,148670,130655
1631024017538,21961,148684,130656
1631024017548,21961,148699,130678
1631024017558,21972,148715,130687
1631024017568,21969,148734,130713
1631024017578,21977,148726,130673
1631024017588,21974,148651,130616
1631024017598,21965,148517,130493
1631024017608,21958,148376,130383
1631024017618,21942,148244,130287
1631024017628,21925,148148,130230
1631024017638,21916,148076,130171
1631024017648,21894,148048,130148
1631024017658,21875,147994,130136
1631024017668,21859,147989,130151
1631024017678,21851,147997,130175
1631024017688,21841,147996,130180
1631024017698,21810,147967,130176
1631024017708,21795,147941,130164
1631024017718,21783,147906,130169
1631024017728,21772,147877,130143
1631024017738,21760,147870,130159
1631024017748,21746,147872,130153
1631024017758,21733,147840,130152
1631024017768,21721,147815,130138
1631024017778,21713,147812,130144
1631024017788,21705,147822,130149
1631024017798,21691,147818,130160
1631024017808,21684,147819,130181
1631024017818,21676,147840,130166
1631024017828,21669,147841,130167
1631024017838,21659,147847,130184
1631024017848,21665,147858,130174
1631024017858,21658,147836,130161
1631024017868,21650,147794,130150
1631024017878,21643,147768,130126
1631024017888,21636,147771,130122
1631024017898,21634,147761,130083
1631024017908,21631,147770,130093
1631024017918,21623,147752,130104
1631024017928,21622,147769,130086
1631024017938,21624,147747,130104
1631024017948,21619,147785,130110
1631024017958,21618,147808,130127
1631024017968,21618,147833,130163
1631024017978,21621,147863,130160
1631024017988,21624,147879,130183
1631024017998,21625,147894,130193
1631024018008,21623,147917,130211
1631024018018,21625,147915,130229
1631024018028,21624,147929,130235
1631024018038,21622,147975,130243
1631024018048,21617,148005,130252
1631024018058,21622,148012,130282
1631024018068,21621,148050,130281
1631024018078,21622,148056,130308
1631024018088,21628,148068,130329
1631024018098,21628,148090,130318
1631024018108,21625,148081,130295
1631024018118,21628,148071,130299
1631024018128,21627,148094,130291
1631024018138,21627,148095,130292
1631024018148,21630,148085,130276
1631024018158,21630,148112,130292
1631024018168,21637,148135,130301
1631024018178,21640,148172,130309
1631024018188,21641,148185,130348
1631024018198,21645,148237,130376
1631024018208,21657,148215,130343
1631024018218,21652,148172,130291
1631024018228,21638,148030,130175
1631024018238,21626,147887,130071
1631024018248,21614,147779,129997
1631024018258,21600,147692,129946
1631024018268,21584,147628,129914
1631024018278,21563,147607,129926
1631024018288,21550,147604,129940
1631024018298,21536,147610,129969
1631024018308,21518,147611,129978
1631024018318,21512,147608,129984
1631024018328,21491,147542,129985
1631024018338,21469,147539,129959
1631024018348,21451,147526,129979
1631024018358,21449,147520,129984
1631024018368,21441,147514,129982
1631024018378,21429,147523,130001
1631024018388,21423,147510,130004
1631024018398,21409,147515,130005
1631024018408,21399,147517,130021
1631024018418,21395,147520,130045
1631024018428,21391,147514,130052
1631024018438,21386,147521,130081
1631024018448,21379,147595,130115
1631024018458,21380,147603,130163
1631024018468,21379,147661,130196
1631024018478,21376,147677,130224
1631024018488,21384,147708,130244
1631024018498,21387,147707,130228
1631024018508,21389,147711,130236
1631024018518,21389,147700,130232
1631024018528,21391,147708,130259
1631024018538,21383,147714,130239
1631024018548,21387,147700,130252
1631024018558,21390,147700,130269
1631024018568,21391,147727,130298
1631024018578,21394,147732,130286
1631024018588,21401,147768,130330
1631024018598,21402,147791,130341
1631024018608,21402,147797,130361
1631024018618,21411,147823,130374
1631024018628,21410,147818,130371
1631024018638,21414,147830,130382
1631024018648,21418,147869,130387
1631024018658,21422,147846,130386
1631024018668,21421,147888,130397
1631024018678,21424,147904,130397
1631024018688,21426,147889,130420
1631024018698,21433,147905,130427
1631024018708,21436,147929,130432
1631024018718,21440,147945,130439
1631024018728,21446,147986,130452
1631024018738,21451,148020,130457
1631024018748,21450,148048,130469
1631024018758,21459,148032,130491
1631024018768,21463,148082,130508
1631024018778,21475,148094,130539
1631024018788,21476,148104,130573
1631024018798,21484,148121,130559
1631024018808,21495,148143,130567
1631024018818,21489,148144,130566
1631024018828,21506,148180,130588
1631024018838,21512,148209,130572
1631024018848,21516,148194,130613
1631024018858,21522,148231,130622
1631024018868,21529,148275,130628
1631024018878,21533,148311,130665
1631024018888,21548,148363,130694
1631024018898,21550,148330,130648
1631024018908,21538,148208,130519
1631024018918,21525,148008,130356
1631024018928,21512,147845,130230
1631024018938,21503,147749,130148
1631024018948,21485,147626,130094
1631024018958,21468,147561,130064
1631024018968,21459,147515,130031
1631024018978,21444,147494,130027
1631024018988,21436,147510,130053
1631024018998,21423,147496,130069
1631024019008,21421,147495,130077
1631024019018,21410,147451,130042
1631024019028,21390,147430,130051
1631024019038,21387,147397,130011
1631024019048,21384,147377,130017
1631024019058,21379,147417,130047
1631024019068,21376,147393,130053
1631024019078,21369,147403,130056
1631024019088,21370,147378,130048
1631024019098,21369,147395,130066
1631024019108,21364,147394,130063
1631024019118,21360,147375,130085
1631024019128,21371,147417,130107
1631024019138,21367,147405,130115
1631024019148,21375,147435,130137
1631024019158,21383,147424,130119
1631024019168,21375,147406,130095
1631024019178,21378,147365,130078
1631024019188,21383,147351,130046
1631024019198,21376,147359,130023
1631024019208,21381,147311,130018
1631024019218,21379,147286,130006
1631024019228,21381,147284,129990
1631024019238,21382,147277,129969
1631024019248,21386,147279,129973
1631024019258,21388,147297,129995
1631024019268,21394,147270,129954
1631024019278,21398,147238,129963
1631024019288,21409,147261,129964
1631024019298,21415,147253,129938
1631024019308,21412,147246,129934
1631024019318,21420,147260,129953
1631024019328,21413,147261,129962
1631024019338,21428,147280,129959
1631024019348,21433,147246,129959
1631024019358,21442,147248,129948
1631024019368,21443,147247,129960
1631024019378,21450,147272,129962
1631024019388,21455,147311,129989
1631024019398,21465,147339,130020
1631024019408,21480,147347,130027
1631024019418,21482,147374,130016
1631024019428,21490,147378,130039
1631024019438,21489,147401,130035
1631024019448,21500,147386,130048
1631024019458,21515,147380,130028
1631024019468,21514,147367,129990
1631024019478,21513,147361,130012
1631024019488,21516,147382,130013
1631024019498,21526,147375,130009
1631024019508,21528,147415,130003
1631024019518,21534,147408,130001
1631024019528,21537,147413,129997
1631024019538,21545,147418,129991
1631024019548,21555,147450,130020
1631024019558,21560,147457,130032
1631024019568,21567,147446,130003
1631024019578,21564,147378,129917
1631024019588,21560,147207,129791
1631024019598,21551,147069,129673
1631024019608,21543,146983,129619
1631024019618,21526,146905,129566
1631024019628,21517,146845,129548
1631024019638,21518,146862,129566
1631024019648,21510,146866,129585
1631024019658,21504,146878,129615
1631024019668,21504,146872,129611
1631024019678,21497,146837,129592
1631024019688,21487,146807,129593
1631024019698,21482,146765,129575
1631024019708,21479,146757,129567
1631024019718,21476,146736,129578
1631024019728,21471,146777,129586
1631024019738,21475,146774,129606
1631024019748,21470,146767,129596
1631024019758,21465,146760,129606
1631024019768,21468,146737,129610
1631024019778,21473,146766,129614
1631024019788,21462,146793,129650
1631024019798,21471,146834,129707
1631024019808,21475,146882,129737
1631024019818,21480,146921,129774
1631024019828,21477,146974,129805
1631024019838,21489,146986,129830
1631024019848,21490,147001,129830
1631024019858,21489,147055,129847
1631024019868,21491,147049,129864
1631024019878,21497,147066,129871
1631024019888,21502,147104,129895
1631024019898,21501,147124,129916
1631024019908,21513,147168,129941
1631024019918,21517,147174,129950
1631024019928,21516,147193,129966
1631024019938,21520,147200,129981
1631024019948,21518,147231,129980
1631024019958,21524,147249,129996
1631024019968,21534,147254,130015
1631024019978,21527,147289,130008
1631024019988,21537,147278,130007
1631024019998,21533,147297,130005
1631024020008,21540,147328,130008
1631024020018,21548,147343,130044
1631024020028,21554,147354,130042
1631024020038,21556,147399,130065
1631024020048,21565,147420,130077
1631024020058,21570,147474,130111
1631024020068,21579,147507,130141
1631024020078,21588,147530,130167
1631024020088,21599,147614,130214
1631024020098,21605,147629,130233
1631024020108,21601,147633,130240
1631024020118,21615,147655,130259
1631024020128,21618,147676,130256
1631024020138,21634,147721,130285
1631024020148,21636,147755,130302
1631024020158,21637,147790,130316
1631024020168,21644,147802,130327
1631024020178,21644,147813,130327
1631024020188,21653,147805,130305
1631024020198,21658,147827,130316
1631024020208,21666,147835,130325
1631024020218,21665,147889,130329
1631024020228,21679,147865,130322
1631024020238,21681,147903,130317
1631024020248,21694,147942,130341
1631024020258,21698,147954,130380
1631024020268,21703,147904,130315
1631024020278,21699,147802,130214
1631024020288,21688,147679,130110
1631024020298,21692,147610,130059
1631024020308,21685,147541,130026
1631024020318,21676,147510,130028
1631024020328,21678,147528,130052
1631024020338,21674,147549,130095
1631024020348,21675,147553,130092
1631024020358,21668,147560,130138
1631024020368,21666,147566,130148
1631024020378,21661,147582,130154
1631024020388,21651,147543,130151
1631024020398,21649,147580,130135
1631024020408,21651,147579,130171
1631024020418,21647,147561,130157
1631024020428,21640,147530,130150
1631024020438,21647,147522,130131
1631024020448,21642,147525,130146
1631024020458,21632,147544,130156
1631024020468,21635,147560,130145
1631024020478,21638,147575,130167
1631024020488,21637,147571,130182
1631024020498,21648,147670,130253
1631024020508,21652,147709,130285
1631024020518,21660,147765,130342
1631024020528,21665,147806,130357
1631024020538,21669,147829,130396
1631024020548,21672,147849,130405
1631024020558,21679,147861,130411
1631024020568,21680,147885,130418
1631024020578,21688,147886,130428
1631024020588,21693,147925,130450
1631024020598,21698,147924,130437
1631024020608,21705,147949,130479
1631024020618,21707,147941,130480
1631024020628,21714,147974,130489
1631024020638,21716,147991,130488
1631024020648,21727,148023,130489
1631024020658,21726,148043,130503
1631024020668,21736,148038,130526
1631024020678,21743,148075,130509
1631024020688,21741,148071,130529
1631024020698,21752,148076,130529
1631024020708,21756,148074,130524
1631024020718,21765,148093,130539
1631024020728,21772,148111,130550
1631024020738,21780,148130,130556
1631024020748,21790,148124,130569
1631024020758,21787,148153,130595
1631024020768,21806,148172,130604
1631024020778,21809,148159,130611
1631024020788,21819,148217,130616
1631024020798,21827,148220,130611
1631024020808,21835,148242,130628
1631024020818,21841,148252,130640
1631024020828,21847,148270,130628
1631024020838,21855,148265,130641
1631024020848,21858,148316,130666
1631024020858,21867,148334,130662
1631024020868,21875,148321,130673
1631024020878,21884,148334,130659
1631024020888,21891,148352,130665
1631024020898,21896,148383,130687
1631024020908,21911,148396,130679
1631024020918,21921,148408,130709
1631024020928,21919,148454,130708
1631024020938,21934,148451,130726
1631024020948,21944,148476,130731
1631024020958,21944,148497,130737
1631024020968,21952,148537,130756
1631024020978,21964,148561,130770
1631024020988,21970,148573,130798
1631024020998,21980,148593,130804
1631024021008,21992,148640,130836
1631024021018,21994,148706,130885
1631024021028,22002,148683,130857
1631024021038,22008,148617,130773
1631024021048,22000,148472,130636
1631024021058,21990,148319,130524
1631024021068,21983,148227,130421
1631024021078,21972,148133,130364
1631024021088,21972,148094,130361
1631024021098,21970,148085,130382
1631024021108,21963,148090,130391
1631024021118,21969,148094,130390
1631024021128,21960,148075,130402
1631024021138,21955,148074,130389
1631024021148,21949,148061,130410
1631024021158,21945,148044,130383
1631024021168,21940,148050,130381
1631024021178,21942,148082,130403
1631024021188,21943,148078,130412
1631024021198,21940,148063,130413
1631024021208,21934,148072,130401
1631024021218,21937,148096,130440
1631024021228,21941,148116,130443
1631024021238,21916,148005,130327
1631024021248,21930,148092,130419
1631024021258,21933,148087,130407
1631024021268,21933,148155,130488
1631024021278,21945,148178,130502
1631024021288,21943,148215,130537
1631024021298,21943,148160,130517
1631024021308,21952,148206,130514
1631024021318,21943,148165,130503
1631024021328,21944,148191,130496
1631024021338,21946,148163,130494
1631024021348,21947,148183,130464
1631024021358,21952,148159,130466
1631024021368,21952,148180,130479
1631024021378,21957,148164,130446
1631024021388,21957,148182,130455
1631024021398,21959,148167,130449
1631024021408,21955,148185,130443
1631024021418,21951,148190,130444
1631024021428,21959,148180,130461
1631024021438,21964,148195,130443
1631024021448,21963,148190,130455
1631024021458,21973,148185,130441
1631024021468,21971,148196,130442
1631024021478,21972,148201,130433
1631024021488,21969,148193,130420
1631024021498,21977,148220,130429
1631024021508,21979,148211,130418
1631024021518,21986,148243,130424
1631024021528,21990,148264,130432
1631024021538,21997,148250,130451
1631024021548,21998,148284,130457
1631024021558,22003,148303,130456
1631024021568,22006,148323,130470
1631024021578,22009,148333,130467
1631024021588,22018,148358,130475
1631024021598,22020,148355,130499
1631024021608,22023,148385,130537
1631024021618,22033,148412,130529
1631024021628,22036,148437,130532
1631024021638,22038,148479,130542
1631024021648,22041,148469,130545
1631024021658,22049,148471,130530
1631024021668,22052,148474,130553
1631024021678,22057,148495,130556
1631024021688,22062,148535,130588
1631024021698,22068,148561,130594
1631024021708,22072,148575,130596
1631024021718,22078,148608,130633
1631024021728,22088,148649,130648
1631024021738,22090,148640,130614
1631024021748,22088,148538,130548
1631024021758,22082,148411,130406
1631024021768,22066,148285,130306
1631024021778,22060,148188,130243
1631024021788,22049,148119,130193
1631024021798,22034,148084,130175
1631024021808,22022,148098,130182
1631024021818,22023,148053,130171
1631024021828,22012,148065,130190
1631024021838,21996,148052,130202
1631024021848,21990,148022,130189
1631024021858,21969,148014,130182
1631024021868,21965,147988,130162
1631024021878,21954,148002,130169
1631024021888,21948,147978,130166
1631024021898,21944,147979,130157
1631024021908,21928,147960,130157
1631024021918,21916,147964,130172
1631024021928,21914,147973,130160
1631024021938,21903,147969,130161
1631024021948,21905,147962,130191
1631024021958,21896,147990,130209
1631024021968,21894,147995,130230
1631024021978,21891,148057,130289
1631024021988,21886,148071,130303
1631024021998,21888,148133,130332
1631024022008,21887,148126,130343
1631024022018,21886,148171,130342
1631024022028,21885,148125,130334
1631024022038,21881,148113,130336
1631024022048,21875,148113,130323
1631024022058,21878,148129,130329
1631024022068,21873,148112,130317
1631024022078,21880,148126,130305
1631024022088,21877,148113,130313
1631024022098,21868,148137,130320
1631024022108,21863,148128,130334
1631024022118,21866,148128,130312
1631024022128,21867,148148,130335
1631024022138,21864,148147,130330
1631024022148,21860,148149,130355
1631024022158,21866,148191,130329
1631024022168,21860,148181,130333
1631024022178,21866,148191,130351
1631024022188,21861,148221,130374
1631024022198,21871,148254,130381
1631024022208,21866,148283,130390
1631024022218,21867,148276,130414
1631024022228,21865,148289,130402
1631024022238,21878,148301,130411
1631024022248,21883,148320,130438
1631024022258,21874,148338,130455
1631024022268,21882,148346,130445
1631024022278,21888,148387,130481
1631024022288,21885,148385,130488
1631024022298,21893,148429,130508
1631024022308,21897,148447,130507
1631024022318,21896,148451,130529
1631024022328,21900,148467,130522
1631024022338,21905,148492,130555
1631024022348,21909,148529,130568
1631024022358,21917,148534,130567
1631024022368,21920,148551,130582
1631024022378,21919,148567,130590
1631024022388,21926,148601,130602
1631024022398,21933,148601,130588
1631024022408,21923,148598,130584
1631024022418,21938,148586,130574
1631024022428,21940,148608,130590
1631024022438,21943,148628,130590
1631024022448,21940,148634,130601
1631024022458,21946,148666,130626
1631024022468,21956,148706,130619
1631024022478,21957,148697,130641
1631024022488,21965,148724,130640
1631024022498,21967,148733,130633
1631024022508,21957,148599,130540
1631024022518,21955,148482,130434
1631024022528,21945,148355,130324
1631024022538,21934,148267,130253
1631024022548,21923,148167,130198
1631024022558,21907,148130,130174
1631024022568,21891,148086,130160
1631024022578,21879,148070,130158
1631024022588,21864,148029,130159
1631024022598,21844,148042,130144
1631024022608,21829,147996,130126
1631024022618,21821,147961,130128
1631024022628,21807,147942,130122
1631024022638,21795,147965,130133
1631024022648,21782,147957,130136
1631024022658,21779,147960,130170
1631024022668,21763,147952,130179
1631024022678,21760,147965,130184
1631024022688,21748,147923,130190
1631024022698,21741,147962,130209
1631024022708,21732,147926,130194
1631024022718,21725,147932,130211
1631024022728,21724,147952,130232
1631024022738,21719,147993,130276
1631024022748,21716,148047,130322
1631024022758,21716,148081,130342
1631024022768,21716,148096,130343
1631024022778,21718,148090,130362
1631024022788,21709,148068,130333
1631024022798,21706,148072,130330
1631024022808,21701,148024,130319
1631024022818,21693,148032,130303
1631024022828,21695,148021,130301
1631024022838,21699,148010,130296
1631024022848,21693,148021,130307
1631024022858,21695,148027,130299
1631024022868,21691,148016,130310
1631024022878,21691,148022,130318
1631024022888,21686,148019,130298
1631024022898,21686,148055,130314
1631024022908,21692,148040,130335
1631024022918,21690,148046,130340
1631024022928,21689,148051,130339
1631024022938,21688,148080,130338
1631024022948,21697,148079,130344
1631024022958,21698,148107,130373
1631024022968,21696,148121,130403
1631024022978,21697,148118,130383
1631024022988,21701,148150,130390
1631024022998,21704,148127,130412
1631024023008,21700,148149,130438
1631024023018,21711,148156,130441
1631024023028,21712,148198,130439
1631024023038,21721,148228,130460
1631024023048,21719,148264,130483
1631024023058,21725,148274,130504
1631024023068,21720,148306,130521
1631024023078,21734,148335,130538
1631024023088,21732,148319,130554
1631024023098,21741,148365,130571
1631024023108,21744,148398,130563
1631024023118,21745,148420,130610
1631024023128,21753,148439,130613
1631024023138,21751,148452,130624
1631024023148,21760,148484,130629
1631024023158,21764,148486,130634
1631024023168,21760,148492,130651
1631024023178,21775,148543,130653
1631024023188,21781,148532,130666
1631024023198,21784,148570,130659
1631024023208,21792,148570,130674
1631024023218,21792,148589,130672
1631024023228,21800,148608,130721
1631024023238,21799,148632,130704
1631024023248,21808,148641,130729
1631024023258,21810,148670,130746
1631024023268,21822,148721,130785
1631024023278,21829,148777,130831
1631024023288,21837,148803,130832
1631024023298,21831,148717,130756
1631024023308,21823,148556,130611
1631024023318,21812,148434,130492
1631024023328,21798,148305,130406
1631024023338,21788,148238,130375
1631024023348,21775,148197,130367
1631024023358,21761,148169,130375
1631024023368,21739,148189,130354
1631024023378,21739,148167,130386
1631024023388,21718,148147,130373
1631024023398,21708,148153,130397
1631024023408,21691,148133,130368
1631024023418,21685,148061,130364
1631024023428,21673,148064,130349
1631024023438,21663,148076,130355
1631024023448,21658,148053,130363
1631024023458,21648,148079,130388
1631024023468,21642,148085,130394
1631024023478,21639,148061,130375
1631024023488,21628,148042,130377
1631024023498,21627,148040,130384
1631024023508,21622,148049,130402
1631024023518,21618,148058,130424
1631024023528,21606,148100,130461
1631024023538,21611,148156,130498
1631024023548,21611,148207,130516
1631024023558,21617,148176,130533
1631024023568,21615,148194,130543
1631024023578,21613,148176,130528
1631024023588,21610,148173,130492
1631024023598,21609,148155,130506
1631024023608,21610,148153,130489
1631024023618,21610,148165,130490
1631024023628,21604,148147,130499
1631024023638,21608,148151,130509
1631024023648,21612,148168,130506
1631024023658,21610,148152,130495
1631024023668,21603,148144,130485
1631024023678,21601,148143,130485
1631024023688,21603,148156,130468
1631024023698,21609,148155,130494
1631024023708,21609,148150,130485
1631024023718,21610,148160,130504
1631024023728,21606,148184,130516
1631024023738,21615,148202,130493
1631024023748,21612,148197,130503
1631024023758,21613,148201,130509
1631024023768,21614,148197,130505
1631024023778,21624,148187,130506
1631024023788,21620,148233,130527
1631024023798,21628,148246,130538
1631024023808,21624,148286,130556
1631024023818,21635,148268,130552
1631024023828,21641,148297,130570
1631024023838,21642,148281,130571
1631024023848,21649,148331,130557
1631024023858,21644,148362,130593
1631024023868,21654,148366,130596
1631024023878,21657,148375,130600
1631024023888,21667,148386,130606
1631024023898,21666,148397,130607
1631024023908,21670,148399,130598
1631024023918,21671,148389,130579
1631024023928,21676,148387,130583
1631024023938,21680,148413,130587
1631024023948,21690,148423,130596
1631024023958,21693,148450,130606
1631024023968,21694,148445,130596
1631024023978,21706,148452,130609
1631024023988,21717,148505,130648
1631024023998,21725,148529,130634
1631024024008,21724,148489,130591
1631024024018,21709,148361,130472
1631024024028,21704,148212,130360
1631024024038,21698,148097,130254
1631024024048,21682,147980,130194
1631024024058,21671,147937,130168
1631024024068,21653,147892,130138
1631024024078,21647,147862,130138
1631024024088,21636,147847,130145
1631024024098,21624,147830,130136
1631024024108,21616,147800,130122
1631024024118,21598,147771,130122
1631024024128,21594,147748,130100
1631024024138,21589,147739,130096
1631024024148,21581,147714,130089
1631024024158,21566,147700,130098
1631024024168,21569,147722,130110
1631024024178,21560,147696,130095
1631024024188,21552,147688,130108
1631024024198,21547,147715,130117
1631024024208,21553,147700,130135
1631024024218,21552,147671,130138
1631024024228,21539,147708,130158
1631024024238,21537,147716,130169
1631024024248,21545,147775,130208
1631024024258,21545,147810,130239
1631024024268,21551,147807,130240
1631024024278,21552,147800,130252
1631024024288,21550,147789,130246
1631024024298,21550,147815,130231
1631024024308,21556,147753,130218
1631024024318,21565,147757,130189
1631024024328,21557,147766,130199
1631024024338,21558,147742,130188
1631024024348,21563,147731,130168
1631024024358,21561,147702,130183
1631024024368,21562,147716,130178
1631024024378,21569,147713,130171
1631024024388,21570,147711,130160
1631024024398,21573,147701,130166
1631024024408,21579,147720,130185
1631024024418,21584,147748,130194
1631024024428,21591,147752,130197
1631024024438,21586,147749,130203
1631024024448,21592,147748,130193
1631024024458,21595,147760,130189
1631024024468,21601,147756,130187
1631024024478,21610,147759,130203
1631024024488,21615,147794,130194
1631024024498,21615,147808,130203
1631024024508,21617,147803,130210
1631024024518,21615,147834,130224
1631024024528,21630,147857,130245
1631024024538,21638,147855,130227
1631024024548,21643,147864,130238
1631024024558,21650,147883,130251
1631024024568,21653,147900,130280
1631024024578,21659,147931,130270
1631024024588,21668,147952,130288
1631024024598,21671,147976,130305
1631024024608,21684,148011,130324
1631024024618,21685,148017,130321
1631024024628,21695,147997,130332
1631024024638,21699,148034,130354
1631024024648,21706,148059,130330
1631024024658,21712,148066,130365
1631024024668,21718,148088,130351
1631024024678,21717,148100,130346
1631024024688,21730,148095,130355
1631024024698,21729,148113,130342
1631024024708,21735,148116,130356
1631024024718,21743,148148,130378
1631024024728,21752,148172,130391
1631024024738,21757,148226,130426
1631024024748,21763,148212,130425
1631024024758,21771,148250,130427
1631024024768,21783,148271,130442
1631024024778,21784,148218,130386
1631024024788,21784,148136,130302
1631024024798,21784,148036,130194
1631024024808,21778,147889,130125
1631024024818,21767,147810,130067
1631024024828,21757,147752,130007
1631024024838,21751,147667,130003
1631024024848,21738,147672,129987
1631024024858,21731,147681,129998
1631024024868,21725,147665,130018
1631024024878,21720,147648,130008
1631024024888,21710,147619,129998
1631024024898,21696,147586,129980
1631024024908,21693,147579,129963
1631024024918,21689,147542,129949
1631024024928,21682,147540,129959
1631024024938,21684,147539,129975
1631024024948,21681,147544,129973
1631024024958,21679,147537,129972
1631024024968,21681,147539,129988
1631024024978,21676,147551,129997
1631024024988,21664,147536,130010
1631024024998,21668,147566,130005
1631024025008,21667,147561,130035
1631024025018,21678,147603,130067
1631024025028,21671,147671,130132
1631024025038,21681,147741,130172
1631024025048,21683,147732,130167
1631024025058,21687,147739,130188
1631024025068,21689,147762,130166
1631024025078,21689,147752,130158
1631024025088,21685,147734,130150
1631024025098,21687,147734,130167
1631024025108,21693,147731,130143
1631024025118,21693,147744,130146
1631024025128,21698,147753,130161
1631024025138,21694,147777,130185
1631024025148,21705,147779,130192
1631024025158,21706,147800,130191
1631024025168,21714,147821,130205
1631024025178,21715,147843,130219
1631024025188,21719,147860,130233
1631024025198,21722,147869,130220
1631024025208,21724,147904,130231
1631024025218,21730,147903,130259
1631024025228,21733,147908,130271
1631024025238,21741,147963,130298
1631024025248,21745,147982,130318
1631024025258,21753,148003,130334
1631024025268,21761,148039,130344
1631024025278,21769,148070,130365
1631024025288,21766,148074,130376
1631024025298,21776,148145,130401
1631024025308,21787,148168,130416
1631024025318,21789,148174,130440
1631024025328,21798,148190,130472
1631024025338,21811,148239,130482
1631024025348,21809,148259,130493
1631024025358,21814,148276,130521
1631024025368,21823,148322,130519
1631024025378,21827,148344,130544
1631024025388,21836,148372,130564
1631024025398,21840,148396,130563
1631024025408,21863,148430,130573
1631024025418,21850,148449,130618
1631024025428,21860,148459,130610
1631024025438,21862,148474,130635
1631024025448,21870,148508,130633
1631024025458,21884,148527,130633
1631024025468,21890,148575,130657
1631024025478,21893,148579,130661
1631024025488,21899,148608,130679
1631024025498,21899,148607,130690
1631024025508,21913,148660,130699
1631024025518,21923,148673,130687
1631024025528,21931,148685,130718
1631024025538,21937,148723,130727
1631024025548,21945,148737,130724
1631024025558,21953,148777,130738
1631024025568,21961,148800,130787
1631024025578,21975,148872,130808
1631024025588,21977,148873,130826
1631024025598,21982,148791,130721
1631024025608,21973,148639,130606
1631024025618,21961,148524,130472
1631024025628,21964,148401,130410
1631024025638,21959,148317,130340
1631024025648,21958,148282,130305
1631024025658,21947,148252,130303
1631024025668,21940,148268,130305
1631024025678,21935,148237,130322
1631024025688,21929,148245,130321
1631024025698,21922,148206,130312
1631024025708,21918,148194,130312
1631024025718,21919,148188,130305
1631024025728,21912,148165,130288
1631024025738,21911,148165,130301
1631024025748,21908,148182,130300
1631024025758,21906,148181,130321
1631024025768,21901,148164,130309
1631024025778,21903,148182,130321
1631024025788,21900,148190,130318
1631024025798,21903,148198,130327
1631024025808,21900,148207,130339
1631024025818,21899,148192,130333
1631024025828,21909,148217,130374
1631024025838,21905,148293,130417
1631024025848,21914,148315,130442
1631024025858,21919,148351,130465
1631024025868,21918,148311,130452
1631024025878,21921,148346,130452
1631024025888,21916,148327,130423
1631024025898,21920,148320,130439
1631024025908,21923,148301,130418
1631024025918,21928,148293,130392
1631024025928,21933,148295,130400
1631024025938,21929,148309,130405
1631024025948,21935,148306,130412
1631024025958,21939,148333,130419
1631024025968,21945,148313,130416
1631024025978,21943,148351,130406
1631024025988,21949,148369,130425
1631024025998,21951,148369,130445
1631024026008,21956,148388,130471
1631024026018,21962,148397,130466
1631024026028,21968,148395,130471
1631024026038,21970,148413,130468
1631024026048,21974,148417,130479
1631024026058,21974,148422,130469
1631024026068,21978,148456,130484
1631024026078,21990,148447,130491
1631024026088,21987,148476,130512
1631024026098,21995,148503,130521
1631024026108,22011,148513,130527
1631024026118,22015,148527,130531
1631024026128,22015,148550,130529
1631024026138,22022,148548,130540
1631024026148,22024,148552,130516
1631024026158,22030,148546,130543
1631024026168,22034,148562,130550
1631024026178,22035,148585,130569
1631024026188,22043,148606,130560
1631024026198,22050,148633,130570
1631024026208,22063,148636,130588
1631024026218,22066,148633,130578
1631024026228,22066,148660,130580
1631024026238,22071,148654,130563
1631024026248,22076,148647,130579
1631024026258,22082,148628,130555
1631024026268,22084,148637,130572
1631024026278,22094,148707,130559
1631024026288,22091,148669,130554
1631024026298,22102,148683,130562
1631024026308,22109,148709,130547
1631024026318,22110,148689,130546
1631024026328,22114,148701,130545
1631024026338,22121,148713,130550
1631024026348,22130,148744,130547
1631024026358,22139,148779,130590
1631024026368,22143,148759,130594
1631024026378,22149,148738,130548
1631024026388,22141,148608,130439
1631024026398,22130,148484,130301
1631024026408,22127,148348,130200
1631024026418,22121,148262,130126
1631024026428,22109,148218,130085
1631024026438,22110,148173,130085
1631024026448,22101,148156,130093
1631024026458,22093,148139,130110
1631024026468,22092,148143,130095
1631024026478,22084,148143,130112
1631024026488,22072,148113,130087
1631024026498,22064,148082,130067
1631024026508,22060,148103,130065
1631024026518,22060,148084,130068
1631024026528,22055,148105,130070
1631024026538,22046,148088,130081
1631024026548,22039,148083,130085
1631024026558,22038,148083,130078
1631024026568,22030,148071,130070
1631024026578,22027,148075,130072
1631024026588,22031,148070,130085
1631024026598,22030,148045,130074
1631024026608,22019,148076,130096
1631024026618,22026,148104,130121
1631024026628,22021,148146,130145
1631024026638,22011,148169,130163
1631024026648,22025,148166,130162
1631024026658,22021,148174,130167
1631024026668,22017,148175,130177
1631024026678,22018,148157,130168
1631024026688,22021,148174,130171
1631024026698,22018,148188,130149
1631024026708,22020,148186,130158
1631024026718,22014,148176,130155
1631024026728,22013,148197,130165
1631024026738,22017,148196,130164
1631024026748,22015,148194,130167
1631024026758,22013,148214,130168
1631024026768,22025,148199,130182
1631024026778,22028,148230,130191
1631024026788,22011,148233,130202
1631024026798,22023,148267,130204
1631024026808,22021,148255,130202
1631024026818,22020,148273,130217
1631024026828,22025,148288,130228
1631024026838,22026,148311,130216
1631024026848,22027,148305,130228
1631024026858,22029,148316,130210
1631024026868,22031,148334,130227
1631024026878,22034,148340,130236
1631024026888,22036,148377,130258
1631024026898,22044,148391,130290
1631024026908,22041,148392,130274
1631024026918,22053,148406,130280
1631024026928,22056,148412,130262
1631024026938,22048,148429,130271
1631024026948,22050,148454,130290
1631024026958,22054,148479,130317
1631024026968,22056,148488,130328
1631024026978,22061,148521,130337
1631024026988,22074,148529,130346
1631024026998,22071,148562,130355
1631024027008,22072,148593,130374
1631024027018,22083,148602,130385
1631024027028,22085,148607,130407
1631024027038,22091,148634,130393
1631024027048,22093,148620,130390
1631024027058,22092,148631,130413
1631024027068,22101,148652,130408
1631024027078,22111,148658,130395
1631024027088,22112,148695,130415
1631024027098,22110,148693,130437
1631024027108,22116,148723,130424
1631024027118,22121,148733,130424
1631024027128,22127,148759,130462
1631024027138,22133,148747,130449
1631024027148,22132,148725,130399
1631024027158,22127,148626,130337
1631024027168,22121,148504,130217
1631024027178,22109,148411,130125
1631024027188,22102,148302,130042
1631024027198,22091,148231,130015
1631024027208,22078,148176,129990
1631024027218,22065,148148,129962
1631024027228,22058,148140,129971
1631024027238,22049,148126,129986
1631024027248,22031,148083,129962
1631024027258,22019,148083,129942
1631024027268,22010,148031,129922
1631024027278,21999,148012,129914
1631024027288,21976,147971,129885
1631024027298,21970,148002,129909
1631024027308,21965,147989,129926
1631024027318,21954,147991,129929
1631024027328,21943,147966,129902
1631024027338,21936,147976,129905
1631024027348,21927,147966,129904
1631024027358,21920,147944,129921
1631024027368,21912,147944,129931
1631024027378,21908,147941,129941
1631024027388,21911,147981,129968
1631024027398,21906,148008,130007
1631024027408,21901,148057,130058
1631024027418,21907,148077,130059
1631024027428,21891,148086,130046
1631024027438,21895,148060,130045
1631024027448,21890,148034,130029
1631024027458,21885,148014,130013
1631024027468,21875,148033,130020
1631024027478,21873,148019,130010
1631024027488,21870,148042,130006
1631024027498,21867,148011,129996
1631024027508,21865,148031,130011
1631024027518,21863,148037,130018
1631024027528,21861,148039,130023
1631024027538,21861,148033,130021
1631024027548,21854,148037,130036
1631024027558,21864,148048,130040
1631024027568,21854,148044,130067
1631024027578,21864,148062,130045
1631024027588,21864,148058,130065
1631024027598,21854,148058,130055
1631024027608,21855,148111,130074
1631024027618,21860,148095,130063
1631024027628,21862,148120,130076
1631024027638,21855,148138,130096
1631024027648,21860,148166,130106
1631024027658,21865,148165,130117
1631024027668,21867,148176,130134
1631024027678,21868,148205,130142
1631024027688,21875,148195,130144
1631024027698,21876,148204,130150
1631024027708,21878,148237,130160
1631024027718,21883,148255,130192
1631024027728,21892,148286,130209
1631024027738,21897,148293,130242
1631024027748,21895,148324,130244
1631024027758,21891,148356,130263
1631024027768,21904,148374,130263
1631024027778,21907,148388,130275
1631024027788,21910,148406,130290
1631024027798,21915,148427,130293
1631024027808,21916,148416,130303
1631024027818,21916,148457,130309
1631024027828,21926,148455,130304
1631024027838,21933,148484,130325
1631024027848,21929,148500,130325
1631024027858,21936,148486,130321
1631024027868,21941,148509,130311
1631024027878,21944,148526,130332
1631024027888,21949,148546,130358
1631024027898,21957,148553,130342
1631024027908,21957,148589,130374
1631024027918,21961,148581,130386
1631024027928,21967,148593,130403
1631024027938,21972,148664,130439
1631024027948,21980,148725,130465
1631024027958,21986,148693,130449
1631024027968,21972,148603,130342
1631024027978,21972,148496,130226
1631024027988,21959,148354,130127
1631024027998,21944,148231,130032
1631024028008,21938,148180,129995
1631024028018,21926,148102,129970
1631024028028,21911,148097,129980
1631024028038,21898,148070,129975
1631024028048,21889,148049,129995
1631024028058,21879,148045,129942
1631024028068,21863,148008,129958
1631024028078,21841,147985,129970
1631024028088,21827,147964,129942
1631024028098,21830,147972,129951
1631024028108,21818,147963,129960
1631024028118,21809,147968,129976
1631024028128,21800,147961,129971
1631024028138,21794,147948,129972
1631024028148,21779,147927,129983
1631024028158,21779,147946,129993
1631024028168,21769,147940,130007
1631024028178,21764,147942,129982
1631024028188,21757,147947,130026
1631024028198,21752,147976,130041
1631024028208,21742,148025,130104
1631024028218,21762,148071,130130
1631024028228,21752,148111,130166
1631024028238,21753,148094,130156
1631024028248,21747,148075,130160
1631024028258,21745,148056,130136
1631024028268,21745,148080,130139
1631024028278,21740,148057,130109
1631024028288,21738,148052,130117
1631024028298,21735,148066,130124
1631024028308,21737,148053,130134
1631024028318,21729,148059,130144
1631024028328,21732,148072,130162
1631024028338,21731,148076,130155
1631024028348,21729,148073,130169
1631024028358,21733,148085,130165
1631024028368,21734,148110,130179
1631024028378,21738,148130,130200
1631024028388,21732,148146,130207
1631024028398,21726,148158,130199
1631024028408,21726,148150,130218
1631024028418,21736,148157,130221
1631024028428,21732,148158,130233
1631024028438,21737,148189,130245
1631024028448,21736,148202,130220
1631024028458,21744,148196,130248
1631024028468,21741,148226,130264
1631024028478,21745,148221,130253
1631024028488,21748,148245,130265
1631024028498,21752,148233,130300
1631024028508,21757,148276,130292
1631024028518,21760,148287,130303
1631024028528,21763,148319,130320
1631024028538,21769,148292,130308
1631024028548,21773,148308,130326
1631024028558,21775,148329,130327
1631024028568,21779,148329,130331
1631024028578,21773,148338,130336
1631024028588,21783,148367,130350
1631024028598,21786,148369,130337
1631024028608,21788,148373,130329
1631024028618,21791,148359,130336
1631024028628,21796,148387,130327
1631024028638,21792,148366,130332
1631024028648,21799,148357,130314
1631024028658,21801,148383,130320
1631024028668,21801,148399,130342
1631024028678,21810,148445,130356
1631024028688,21821,148454,130374
1631024028698,21824,148463,130390
1631024028708,21824,148451,130335
1631024028718,21824,148325,130251
1631024028728,21808,148170,130099
1631024028738,21796,148039,129994
1631024028748,21792,147951,129930
1631024028758,21779,147876,129896
1631024028768,21766,147840,129889
1631024028778,21752,147808,129855
1631024028788,21740,147795,129870
1631024028798,21730,147804,129891
1631024028808,21717,147765,129860
1631024028818,21706,147748,129859
1631024028828,21694,147717,129847
1631024028838,21682,147696,129864
1631024028848,21670,147667,129853
1631024028858,21663,147701,129848
1631024028868,21666,147683,129883
1631024028878,21660,147669,129882
1631024028888,21647,147696,129866
1631024028898,21640,147675,129873
1631024028908,21635,147659,129867
1631024028918,21626,147629,129870
1631024028928,21618,147647,129869
1631024028938,21617,147666,129897
1631024028948,21618,147709,129943
1631024028958,21618,147737,129965
1631024028968,21616,147759,129992
1631024028978,21618,147785,129999
1631024028988,21614,147783,130013
1631024028998,21620,147750,130001
1631024029008,21612,147746,129984
1631024029018,21616,147759,129962
1631024029028,21609,147729,129965
1631024029038,21608,147741,129949
1631024029048,21614,147764,129978
1631024029058,21618,147734,129947
1631024029068,21608,147708,129944
1631024029078,21614,147721,129952
1631024029088,21611,147723,129955
1631024029098,21615,147727,129970
1631024029108,21621,147748,129978
1631024029118,21617,147753,129996
1631024029128,21621,147767,129983
1631024029138,21623,147783,129985
1631024029148,21623,147771,130005
1631024029158,21625,147794,130022
1631024029168,21629,147810,130015
1631024029178,21632,147847,130047
1631024029188,21634,147846,130041
1631024029198,21640,147865,130065
1631024029208,21641,147878,130058
1631024029218,21649,147881,130074
1631024029228,21657,147907,130085
1631024029238,21661,147934,130109
1631024029248,21660,147936,130115
1631024029258,21665,147967,130130
1631024029268,21674,147966,130122
1631024029278,21677,147984,130129
1631024029288,21681,148036,130136
1631024029298,21685,148022,130170
1631024029308,21692,148043,130161
1631024029318,21698,148063,130174
1631024029328,21698,148068,130188
1631024029338,21710,148102,130203
1631024029348,21713,148096,130206
1631024029358,21713,148114,130205
1631024029368,21722,148127,130200
1631024029378,21722,148147,130218
1631024029388,21733,148143,130201
1631024029398,21742,148147,130195
1631024029408,21746,148182,130213
1631024029418,21748,148183,130233
1631024029428,21753,148215,130220
1631024029438,21763,148246,130255
1631024029448,21768,148219,130243
1631024029458,21778,148277,130287
1631024029468,21783,148302,130277
1631024029478,21788,148281,130267
1631024029488,21784,148207,130173
1631024029498,21779,148097,130074
1631024029508,21770,147953,130003
1631024029518,21769,147856,129914
1631024029528,21751,147807,129890
1631024029538,21737,147723,129838
1631024029548,21735,147717,129837
1631024029558,21726,147718,129841
1631024029568,21718,147679,129849
1631024029578,21707,147667,129851
1631024029588,21696,147630,129819
1631024029598,21687,147582,129795
1631024029608,21679,147576,129792
1631024029618,21669,147553,129784
1631024029628,21661,147555,129787
1631024029638,21661,147550,129778
1631024029648,21656,147528,129787
1631024029658,21653,147537,129805
1631024029668,21648,147526,129809
1631024029678,21647,147510,129809
1631024029688,21637,147537,129810
1631024029698,21641,147496,129806
1631024029708,21637,147520,129819
1631024029718,21636,147517,129850
1631024029728,21633,147578,129908
1631024029738,21642,147617,129927
1631024029748,21638,147665,129967
1631024029758,21650,147675,129991
1631024029768,21644,147659,129975
1631024029778,21646,147670,129979
1631024029788,21645,147674,129968
1631024029798,21648,147642,129949
1631024029808,21634,147644,129949
1631024029818,21645,147616,129951
1631024029828,21642,147605,129942
1631024029838,21650,147612,129928
1631024029848,21645,147640,129942
1631024029858,21647,147642,129932
1631024029868,21649,147627,129946
1631024029878,21653,147623,129938
1631024029888,21660,147616,129934
1631024029898,21657,147660,129946
1631024029908,21666,147649,129951
1631024029918,21666,147656,129946
1631024029928,21670,147653,129965
1631024029938,21678,147673,129948
1631024029948,21682,147695,129974
1631024029958,21687,147668,129971
1631024029968,21692,147718,129980
1631024029978,21699,147714,129999
1631024029988,21700,147740,129999
1631024029998,21707,147750,130026
1631024030008,21716,147766,130013
1631024030018,21715,147766,130022
1631024030028,21721,147763,130023
1631024030038,21722,147801,130033
1631024030048,21730,147819,130026
1631024030058,21735,147840,130066
1631024030068,21744,147838,130071
1631024030078,21750,147900,130069
1631024030088,21752,147896,130066
1631024030098,21757,147907,130079
1631024030108,21768,147930,130094
1631024030118,21771,147941,130099
1631024030128,21779,147958,130133
1631024030138,21781,147975,130122
1631024030148,21793,148002,130134
1631024030158,21792,148011,130145
1631024030168,21805,148049,130143
1631024030178,21806,148062,130152
1631024030188,21817,148070,130187
1631024030198,21815,148085,130178
1631024030208,21829,148096,130168
1631024030218,21824,148130,130181
1631024030228,21840,148140,130213
1631024030238,21849,148149,130204
1631024030248,21860,148172,130216
1631024030258,21864,148205,130221
1631024030268,21871,148244,130238
1631024030278,21883,148233,130270
1631024030288,21892,148300,130292
1631024030298,21899,148342,130317
1631024030308,21907,148332,130311
1631024030318,21906,148274,130244
1631024030328,21898,148154,130140
1631024030338,21886,148038,130037
1631024030348,21895,147940,129977
1631024030358,21881,147891,129917
1631024030368,21880,147838,129902
1631024030378,21868,147826,129886
1631024030388,21860,147819,129911
1631024030398,21856,147813,129941
1631024030408,21854,147808,129939
1631024030418,21842,147803,129924
1631024030428,21837,147762,129901
1631024030438,21828,147749,129896
1631024030448,21826,147752,129913
1631024030458,21824,147776,129919
1631024030468,21824,147747,129929
1631024030478,21821,147772,129924
1631024030488,21813,147790,129944
1631024030498,21819,147782,129959
1631024030508,21814,147786,129975
1631024030518,21808,147801,129971
1631024030528,21812,147816,129976
1631024030538,21816,147804,129981
1631024030548,21814,147813,130012
1631024030558,21813,147886,130082
1631024030568,21826,147934,130109
1631024030578,21826,147976,130138
1631024030588,21827,147972,130138
1631024030598,21832,147961,130136
1631024030608,21836,147949,130127
1631024030618,21836,147953,130111
1631024030628,21830,147965,130097
1631024030638,21836,147939,130084
1631024030648,21834,147932,130078
1631024030658,21840,147949,130078
1631024030668,21850,147948,130103
1631024030678,21854,147979,130109
1631024030688,21850,147970,130116
1631024030698,21856,147979,130124
1631024030708,21860,147979,130117
1631024030718,21863,148012,130125
1631024030728,21865,148015,130127
1631024030738,21871,148009,130131
1631024030748,21874,148014,130136
1631024030758,21875,148041,130141
1631024030768,21881,148015,130143
1631024030778,21886,148043,130157
1631024030788,21884,148054,130165
1631024030798,21891,148086,130143
1631024030808,21901,148077,130161
1631024030818,21896,148080,130171
1631024030828,21910,148122,130179
1631024030838,21912,148133,130202
1631024030848,21923,148185,130217
1631024030858,21926,148186,130239
1631024030868,21930,148206,130261
1631024030878,21937,148214,130254
1631024030888,21946,148234,130244
1631024030898,21952,148232,130264
1631024030908,21955,148262,130272
1631024030918,21967,148272,130294
1631024030928,21969,148289,130292
1631024030938,21980,148327,130303
1631024030948,21990,148332,130300
1631024030958,21993,148362,130309
1631024030968,22004,148348,130319
1631024030978,22007,148414,130337
1631024030988,22010,148437,130373
1631024030998,22024,148439,130354
1631024031008,22035,148450,130370
1631024031018,22038,148489,130390
1631024031028,22036,148483,130394
1631024031038,22048,148481,130388
1631024031048,22054,148503,130386
1631024031058,22060,148518,130404
1631024031068,22066,148551,130406
1631024031078,22077,148545,130392
1631024031088,22075,148571,130423
1631024031098,22086,148557,130424
1631024031108,22099,148625,130447
1631024031118,22109,148667,130470
1631024031128,22110,148642,130456
1631024031138,22117,148571,130383
1631024031148,22110,148452,130277
1631024031158,22108,148330,130148
1631024031168,22099,148201,130078
1631024031178,22087,148124,130003
1631024031188,22082,148067,129985
1631024031198,22078,148061,129983
1631024031208,22069,148052,129988
1631024031218,22064,148030,129976
1631024031228,22058,148049,129987
1631024031238,22054,148004,129976
1631024031248,22047,148006,129975
1631024031258,22040,147985,129962
1631024031268,22037,147978,129973
1631024031278,22037,147950,129953
1631024031288,22029,147983,129961
1631024031298,22020,147966,129960
1631024031308,22019,147948,129955
1631024031318,22023,147943,129962
1631024031328,22009,147934,129958
1631024031338,22015,147945,129957
1631024031348,22010,147934,129950
1631024031358,22007,147945,129968
1631024031368,22003,147948,129972
1631024031378,22005,147990,130005
1631024031388,22004,148027,130033
1631024031398,22008,148044,130050
1631024031408,22008,148062,130059
1631024031418,22013,148041,130031
1631024031428,22009,148036,130020
1631024031438,22007,148014,130025
1631024031448,22014,148029,130035
1631024031458,22011,148030,130013
1631024031468,22006,148013,129999
1631024031478,22010,148016,129996
1631024031488,22007,148035,129986
1631024031498,22008,148005,130005
1631024031508,22009,148034,130007
1631024031518,22010,148026,129996
1631024031528,22008,148038,130028
1631024031538,22012,148029,130033
1631024031548,22007,148061,130037
1631024031558,22015,148076,130045
1631024031568,22017,148082,130055
1631024031578,22022,148115,130058
1631024031588,22027,148129,130089
1631024031598,22025,148143,130088
1631024031608,22027,148156,130080
1631024031618,22040,148167,130109
1631024031628,22028,148190,130110
1631024031638,22039,148198,130105
1631024031648,22040,148202,130137
1631024031658,22047,148205,130138
1631024031668,22046,148233,130138
1631024031678,22050,148217,130146
1631024031688,22055,148270,130147
1631024031698,22060,148274,130169
1631024031708,22061,148294,130161
1631024031718,22065,148308,130176
1631024031728,22063,148332,130183
1631024031738,22073,148350,130193
1631024031748,22080,148356,130220
1631024031758,22081,148350,130199
1631024031768,22087,148399,130220
1631024031778,22093,148438,130226
1631024031788,22093,148424,130231
1631024031798,22101,148441,130240
1631024031808,22116,148468,130267
1631024031818,22100,148481,130265
1631024031828,22110,148516,130255
1631024031838,22116,148473,130247
1631024031848,22121,148502,130251
1631024031858,22123,148518,130268
1631024031868,22125,148555,130291
1631024031878,22135,148575,130304
1631024031888,22143,148625,130308
1631024031898,22147,148610,130337
1631024031908,22150,148641,130345
1631024031918,22157,148652,130339
1631024031928,22152,148583,130277
1631024031938,22155,148489,130202
1631024031948,22135,148401,130095
1631024031958,22132,148293,130014
1631024031968,22138,148203,129970
1631024031978,22117,148146,129942
1631024031988,22113,148112,129921
1631024031998,22099,148098,129944
1631024032008,22086,148136,129943
1631024032018,22077,148086,129927
1631024032028,22065,148051,129935
1631024032038,22054,148057,129907
1631024032048,22043,147998,129901
1631024032058,22033,147992,129875
1631024032068,22021,148003,129872
1631024032078,22012,148002,129882
1631024032088,22009,148004,129896
1631024032098,21997,148002,129907
1631024032108,21988,147982,129904
1631024032118,21981,147973,129906
1631024032128,21974,147958,129899
1631024032138,21973,147963,129928
1631024032148,21961,147949,129905
1631024032158,21957,147959,129932
1631024032168,21950,148007,129960
1631024032178,21958,148033,130002
1631024032188,21950,148083,130033
1631024032198,21951,148082,130052
1631024032208,21949,148096,130040
1631024032218,21941,148068,130054
1631024032228,21938,148096,130039
1631024032238,21933,148081,130038
1631024032248,21933,148060,130016
1631024032258,21928,148078,130037
1631024032268,21923,148049,130016
1631024032278,21917,148040,130009
1631024032288,21917,148040,130019
1631024032298,21919,148046,130005
1631024032308,21910,148048,130001
1631024032318,21911,148040,130005
1631024032328,21912,148059,129992
1631024032338,21910,148077,130010
1631024032348,21908,148064,130013
1631024032358,21906,148071,130019
1631024032368,21904,148071,130005
1631024032378,21904,148069,130019
1631024032388,21906,148091,130038
1631024032398,21910,148098,130049
1631024032408,21911,148106,130065
1631024032418,21914,148114,130053
1631024032428,21916,148144,130070
1631024032438,21914,148161,130089
1631024032448,21916,148150,130081
1631024032458,21917,148150,130080
1631024032468,21914,148145,130066
1631024032478,21927,148112,130049
1631024032488,21928,148105,130034
1631024032498,21925,148106,130012
1631024032508,21924,148103,129999
1631024032518,21933,148094,129993
1631024032528,21937,148117,130008
1631024032538,21938,148091,130011
1631024032548,21935,148129,130014
1631024032558,21942,148110,130022
1631024032568,21945,148124,130020
1631024032578,21949,148146,130020
1631024032588,21954,148150,130026
1631024032598,21949,148177,130051
1631024032608,21955,148175,130061
1631024032618,21973,148239,130071
1631024032628,21967,148272,130059
1631024032638,21971,148260,130093
1631024032648,21968,148270,130104
1631024032658,21977,148304,130121
1631024032668,21985,148334,130141
1631024032678,21990,148336,130149
1631024032688,21988,148336,130151
1631024032698,21995,148360,130150
1631024032708,21999,148388,130147
1631024032718,22005,148388,130169
1631024032728,22009,148430,130190
1631024032738,22018,148466,130219
1631024032748,22015,148481,130224
1631024032758,22027,148521,130244
1631024032768,22031,148573,130264
1631024032778,22038,148602,130295
1631024032788,22041,148554,130270
1631024032798,22042,148485,130175
1631024032808,22034,148375,130089
1631024032818,22022,148290,130027
1631024032828,22015,148212,129972
1631024032838,21998,148147,129936
1631024032848,21983,148096,129914
1631024032858,21975,148083,129900
1631024032868,21966,148079,129918
1631024032878,21948,148070,129904
1631024032888,21936,148026,129920
1631024032898,21922,148042,129906
1631024032908,21909,148011,129909
1631024032918,21905,148001,129912
1631024032928,21894,148006,129921
1631024032938,21878,148021,129938
1631024032948,21878,148000,129955
1631024032958,21863,148001,129959
1631024032968,21859,148022,129987
1631024032978,21856,148035,129994
1631024032988,21843,148044,130004
1631024032998,21837,148045,130029
1631024033008,21831,148031,130039
1631024033018,21825,148044,130052
1631024033028,21821,148080,130073
1631024033038,21820,148134,130116
1631024033048,21823,148151,130144
1631024033058,21820,148196,130177
1631024033068,21816,148200,130183
1631024033078,21817,148217,130170
1631024033088,21816,148218,130177
1631024033098,21815,148181,130161
1631024033108,21818,148156,130160
1631024033118,21808,148166,130158
1631024033128,21802,148146,130119
1631024033138,21802,148171,130153
1631024033148,21801,148184,130144
1631024033158,21801,148177,130162
1631024033168,21800,148159,130161
1631024033178,21804,148176,130144
1631024033188,21802,148194,130170
1631024033198,21803,148190,130166
1631024033208,21803,148195,130193
1631024033218,21807,148220,130183
1631024033228,21805,148236,130198
1631024033238,21809,148243,130203
1631024033248,21805,148231,130207
1631024033258,21816,148242,130225
1631024033268,21812,148251,130215
1631024033278,21813,148263,130235
1631024033288,21812,148274,130236
1631024033298,21814,148287,130239
1631024033308,21820,148313,130230
1631024033318,21824,148342,130280
1631024033328,21829,148360,130274
1631024033338,21828,148390,130305
1631024033348,21830,148394,130316
1631024033358,21837,148438,130340
1631024033368,21846,148429,130327
1631024033378,21843,148470,130354
1631024033388,21852,148459,130359
1631024033398,21854,148490,130366
1631024033408,21864,148495,130377
1631024033418,21864,148538,130392
1631024033428,21866,148557,130398
1631024033438,21873,148565,130414
1631024033448,21874,148575,130409
1631024033458,21887,148586,130419
1631024033468,21884,148602,130433
1631024033478,21888,148637,130451
1631024033488,21892,148656,130461
1631024033498,21896,148658,130457
1631024033508,21900,148670,130440
1631024033518,21907,148680,130463
1631024033528,21914,148699,130474
1631024033538,21921,148707,130491
1631024033548,21928,148733,130500
1631024033558,21926,148735,130494
1631024033568,21927,148780,130522
1631024033578,21939,148826,130554
1631024033588,21951,148859,130568
1631024033598,21955,148827,130549
1631024033608,21951,148737,130467
1631024033618,21940,148614,130335
1631024033628,21937,148478,130207
1631024033638,21925,148365,130139
1631024033648,21913,148282,130077
1631024033658,21900,148235,130081
1631024033668,21888,148218,130066
1631024033678,21880,148203,130070
1631024033688,21866,148192,130082
1631024033698,21853,148169,130075
1631024033708,21845,148173,130086
1631024033718,21840,148148,130076
1631024033728,21827,148126,130078
1631024033738,21813,148132,130074
1631024033748,21815,148122,130072
1631024033758,21817,148139,130090
1631024033768,21803,148140,130102
1631024033778,21800,148118,130114
1631024033788,21793,148117,130086
1631024033798,21783,148105,130084
1631024033808,21771,148069,130068
1631024033818,21769,148075,130043
1631024033828,21763,148062,130069
1631024033838,21760,148081,130082
1631024033848,21763,148095,130120
1631024033858,21763,148123,130139
1631024033868,21766,148167,130149
1631024033878,21763,148145,130149
1631024033888,21768,148139,130134
1631024033898,21766,148154,130142
1631024033908,21763,148136,130139
1631024033918,21769,148153,130135
1631024033928,21771,148160,130143
1631024033938,21764,148140,130137
1631024033948,21763,148137,130128
1631024033958,21763,148133,130135
1631024033968,21760,148143,130150
1631024033978,21764,148148,130142
1631024033988,21759,148148,130129
1631024033998,21763,148166,130163
1631024034008,21768,148156,130162
1631024034018,21765,148179,130150
1631024034028,21764,148157,130151
1631024034038,21767,148161,130161
1631024034048,21773,148180,130168
1631024034058,21775,148174,130149
1631024034068,21774,148211,130169
1631024034078,21772,148196,130176
1631024034088,21783,148204,130159
1631024034098,21782,148222,130216
1631024034108,21789,148239,130226
1631024034118,21791,148250,130219
1631024034128,21796,148278,130224
1631024034138,21800,148290,130232
1631024034148,21804,148320,130227
1631024034158,21812,148325,130234
1631024034168,21816,148320,130248
1631024034178,21818,148328,130260
1631024034188,21824,148363,130267
1631024034198,21832,148397,130273
1631024034208,21838,148397,130269
1631024034218,21836,148413,130265
1631024034228,21847,148402,130277
1631024034238,21852,148422,130276
1631024034248,21858,148433,130273
1631024034258,21861,148425,130276
1631024034268,21866,148428,130286
1631024034278,21871,148435,130287
1631024034288,21881,148460,130294
1631024034298,21882,148486,130295
1631024034308,21891,148496,130307
1631024034318,21895,148540,130328
1631024034328,21904,148556,130329
1631024034338,21909,148545,130348
1631024034348,21909,148591,130354
1631024034358,21919,148572,130337
1631024034368,21920,148500,130266
1631024034378,21917,148388,130161
1631024034388,21905,148267,130079
1631024034398,21899,148156,129991
1631024034408,21873,148063,129936
1631024034418,21884,148036,129908
1631024034428,21870,147988,129913
1631024034438,21859,147982,129908
1631024034448,21848,147969,129909
1631024034458,21838,147965,129905
1631024034468,21831,147903,129886
1631024034478,21816,147884,129874
1631024034488,21804,147859,129866
1631024034498,21803,147834,129868
1631024034508,21790,147841,129874
1631024034518,21788,147836,129874
1631024034528,21780,147842,129872
1631024034538,21781,147836,129865
1631024034548,21769,147840,129880
1631024034558,21767,147836,129906
1631024034568,21758,147830,129906
1631024034578,21768,147808,129912
1631024034588,21761,147839,129935
1631024034598,21755,147852,129927
1631024034608,21765,147883,129969
1631024034618,21761,147875,129993
1631024034628,21763,147901,130008
1631024034638,21762,147917,130033
1631024034648,21766,147926,130031
1631024034658,21761,147930,130021
1631024034668,21763,147904,130010
1631024034678,21770,147913,130003
1631024034688,21762,147874,129994
1631024034698,21762,147876,129981
1631024034708,21766,147895,129995
1631024034718,21768,147875,129989
1631024034728,21766,147876,130004
1631024034738,21768,147883,130008
1631024034748,21774,147885,129994
1631024034758,21759,147895,129980
1631024034768,21771,147905,130003
1631024034778,21776,147934,130006
1631024034788,21774,147928,130013
1631024034798,21777,147941,130024
1631024034808,21781,147930,130013
1631024034818,21781,147933,130048
1631024034828,21786,147949,130050
1631024034838,21791,147965,130060
1631024034848,21794,147964,130052
1631024034858,21804,147973,130082
1631024034868,21803,148029,130073
1631024034878,21810,148001,130116
1631024034888,21817,148058,130121
1631024034898,21816,148061,130131
1631024034908,21836,148109,130150
1631024034918,21837,148113,130136
1631024034928,21839,148120,130141
1631024034938,21841,148134,130142
1631024034948,21847,148149,130175
1631024034958,21856,148169,130183
1631024034968,21861,148181,130196
1631024034978,21865,148184,130203
1631024034988,21874,148212,130202
1631024034998,21879,148198,130206
1631024035008,21891,148236,130210
1631024035018,21892,148231,130225
1631024035028,21892,148259,130207
1631024035038,21889,148292,130226
1631024035048,21896,148313,130218
1631024035058,21909,148320,130218
1631024035068,21912,148304,130240
1631024035078,21919,148330,130244
1631024035088,21924,148338,130258
1631024035098,21933,148393,130297
1631024035108,21938,148404,130295
1631024035118,21945,148438,130309
1631024035128,21956,148479,130340
1631024035138,21958,148494,130354
1631024035148,21965,148504,130340
1631024035158,21968,148447,130295
1631024035168,21962,148326,130194
1631024035178,21953,148236,130109
1631024035188,21956,148153,130043
1631024035198,21946,148083,129985
1631024035208,21934,148037,129989
1631024035218,21921,148024,129973
1631024035228,21913,147996,129966
1631024035238,21905,147994,129988
1631024035248,21900,148007,129985
1631024035258,21883,147961,129979
1631024035268,21885,147947,129971
1631024035278,21875,147953,129954
1631024035288,21869,147915,129964
1631024035298,21861,147916,129983
1631024035308,21861,147957,129993
1631024035318,21861,147931,130004
1631024035328,21855,147936,130002
1631024035338,21860,147959,130024
1631024035348,21856,147976,130028
1631024035358,21858,147959,130039
1631024035368,21855,147958,130049
1631024035378,21841,147937,130041
1631024035388,21851,147964,130055
1631024035398,21848,147987,130098
1631024035408,21845,148055,130123
1631024035418,21849,148055,130144
1631024035428,21854,148052,130132
1631024035438,21855,148049,130151
1631024035448,21858,148047,130131
1631024035458,21858,148038,130115
1631024035468,21859,148051,130127
1631024035478,21862,148018,130110
1631024035488,21858,148025,130096
1631024035498,21864,148045,130092
1631024035508,21868,148040,130107
1631024035518,21875,148038,130141
1631024035528,21875,148065,130144
1631024035538,21870,148065,130130
1631024035548,21877,148073,130128
1631024035558,21883,148070,130137
1631024035568,21878,148076,130137
1631024035578,21885,148072,130149
1631024035588,21886,148085,130152
1631024035598,21894,148088,130167
1631024035608,21892,148089,130148
1631024035618,21895,148101,130181
1631024035628,21899,148127,130171
1631024035638,21904,148152,130165
1631024035648,21903,148154,130181
1631024035658,21915,148162,130208
1631024035668,21922,148196,130201
1631024035678,21920,148188,130241
1631024035688,21931,148226,130235
1631024035698,21936,148255,130244
1631024035708,21951,148277,130256
1631024035718,21947,148283,130279
1631024035728,21955,148303,130293
1631024035738,21962,148306,130294
1631024035748,21963,148332,130301
1631024035758,21975,148340,130293
1631024035768,21976,148331,130295
1631024035778,21979,148343,130304
1631024035788,21985,148363,130301
1631024035798,21992,148403,130312
1631024035808,21999,148407,130319
1631024035818,22003,148410,130337
1631024035828,22015,148452,130353
1631024035838,22008,148458,130341
1631024035848,22020,148452,130340
1631024035858,22031,148482,130344
1631024035868,22036,148483,130376
1631024035878,22040,148517,130387
1631024035888,22050,148518,130394
1631024035898,22054,148573,130397
1631024035908,22059,148574,130410
1631024035918,22078,148628,130462
1631024035928,22078,148653,130468
1631024035938,22080,148632,130457
1631024035948,22083,148574,130380
1631024035958,22071,148419,130257
1631024035968,22069,148306,130125
1631024035978,22062,148156,130041
1631024035988,22050,148108,129977
1631024035998,22040,148064,129976
1631024036008,22041,148028,129982
1631024036018,22017,148043,129972
1631024036028,22021,148003,129960
1631024036038,22011,147994,129963
1631024036048,22002,147992,129970
1631024036058,21993,147940,129959
1631024036068,21993,147930,129919
1631024036078,21981,147909,129925
1631024036088,21979,147914,129921
1631024036098,21976,147915,129929
1631024036108,21974,147916,129925
1631024036118,21966,147917,129930
1631024036128,21966,147896,129912
1631024036138,21955,147841,129921
1631024036148,21958,147851,129911
1631024036158,21953,147847,129929
1631024036168,21949,147831,129904
1631024036178,21936,147862,129910
1631024036188,21948,147900,129964
1631024036198,21942,147935,129969
1631024036208,21948,147931,129966
1631024036218,21950,147928,129974
1631024036228,21945,147919,129962
1631024036238,21944,147891,129945
1631024036248,21942,147924,129926
1631024036258,21947,147875,129936
1631024036268,21947,147871,129932
1631024036278,21944,147867,129918
1631024036288,21949,147877,129942
1631024036298,21950,147882,129910
1631024036308,21945,147886,129927
1631024036318,21945,147882,129923
1631024036328,21951,147916,129934
1631024036338,21950,147902,129938
1631024036348,21953,147908,129944
1631024036358,21944,147934,129962
1631024036368,21961,147939,129947
1631024036378,21955,147934,129967
1631024036388,21957,147950,129969
1631024036398,21964,147980,129977
1631024036408,21960,147965,129978
1631024036418,21965,147973,129972
1631024036428,21966,147991,129978
1631024036438,21968,148005,129988
1631024036448,21974,148032,130012
1631024036458,21987,148052,130034
1631024036468,21982,148090,130047
1631024036478,21994,148098,130063
1631024036488,21991,148125,130069
1631024036498,22005,148125,130079
1631024036508,22002,148152,130082
1631024036518,22019,148159,130085
1631024036528,22012,148176,130112
1631024036538,22019,148195,130122
1631024036548,22022,148210,130135
1631024036558,22025,148226,130119
1631024036568,22028,148227,130110
1631024036578,22034,148243,130133
1631024036588,22039,148225,130113
1631024036598,22038,148237,130115
1631024036608,22052,148277,130121
1631024036618,22050,148279,130131
1631024036628,22059,148307,130147
1631024036638,22063,148303,130145
1631024036648,22067,148348,130183
1631024036658,22073,148358,130178
1631024036668,22085,148339,130182
1631024036678,22093,148321,130134
1631024036688,22081,148262,130072
1631024036698,22076,148134,129971
1631024036708,22059,148021,129888
1631024036718,22053,147919,129829
1631024036728,22045,147891,129799
1631024036738,22035,147854,129771
1631024036748,22030,147833,129760
1631024036758,22014,147808,129750
1631024036768,22013,147808,129752
1631024036778,22000,147753,129736
1631024036788,21986,147741,129720
1631024036798,21974,147715,129711
1631024036808,21968,147693,129696
1631024036818,21958,147696,129693
1631024036828,21950,147696,129699
1631024036838,21945,147669,129694
1631024036848,21946,147686,129704
1631024036858,21936,147649,129711
1631024036868,21932,147665,129707
1631024036878,21924,147659,129710
1631024036888,21916,147629,129707
1631024036898,21912,147638,129713
1631024036908,21906,147632,129702
1631024036918,21900,147641,129742
1631024036928,21903,147680,129779
1631024036938,21897,147721,129789
1631024036948,21906,147713,129801
1631024036958,21903,147753,129801
1631024036968,21904,147749,129819
1631024036978,21892,147719,129808
1631024036988,21903,147719,129796
1631024036998,21900,147713,129821
1631024037008,21895,147738,129817
1631024037018,21898,147735,129813
1631024037028,21902,147742,129822
1631024037038,21898,147748,129819
1631024037048,21899,147757,129827
1631024037058,21898,147751,129826
1631024037068,21902,147770,129848
1631024037078,21901,147760,129832
1631024037088,21903,147774,129843
1631024037098,21904,147789,129850
1631024037108,21901,147776,129844
1631024037118,21904,147796,129854
1631024037128,21911,147814,129853
1631024037138,21904,147810,129862
1631024037148,21917,147834,129865
1631024037158,21909,147837,129882
1631024037168,21920,147867,129901
1631024037178,21921,147883,129903
1631024037188,21923,147902,129912
1631024037198,21923,147931,129946
1631024037208,21930,147941,129951
1631024037218,21937,147981,129958
1631024037228,21943,147972,129968
1631024037238,21944,148002,129980
1631024037248,21950,148019,130000
1631024037258,21953,148031,130006
1631024037268,21960,148056,130007
1631024037278,21965,148039,130007
1631024037288,21964,148073,129991
1631024037298,21965,148059,130000
1631024037308,21970,148060,130009
1631024037318,21981,148079,130008
1631024037328,21979,148096,129993
1631024037338,21990,148121,130014
1631024037348,21989,148140,130028
1631024037358,21991,148157,130046
1631024037368,21997,148159,130030
1631024037378,21997,148161,130045
1631024037388,22008,148189,130053
1631024037398,22013,148218,130063
1631024037408,22019,148202,130052
1631024037418,22020,148213,130052
1631024037428,22025,148237,130051
1631024037438,22029,148245,130050
1631024037448,22033,148260,130059
1631024037458,22041,148270,130071
1631024037468,22059,148279,130073
1631024037478,22047,148289,130067
1631024037488,22060,148301,130078
1631024037498,22056,148308,130090
1631024037508,22069,148269,130027
1631024037518,22062,148164,129928
1631024037528,22055,148036,129816
1631024037538,22039,147939,129746
1631024037548,22032,147829,129671
1631024037558,22025,147778,129623
1631024037568,22014,147700,129601
1631024037578,22003,147688,129577
1631024037588,21994,147690,129577
1631024037598,21978,147646,129565
1631024037608,21964,147607,129551
1631024037618,21957,147564,129538
1631024037628,21940,147564,129517
1631024037638,21936,147548,129507
1631024037648,21932,147546,129489
1631024037658,21916,147549,129491
1631024037668,21912,147496,129509
1631024037678,21912,147515,129511
1631024037688,21902,147510,129498
1631024037698,21898,147512,129505
1631024037708,21886,147519,129548
1631024037718,21886,147513,129549
1631024037728,21885,147506,129564
1631024037738,21878,147550,129569
1631024037748,21874,147546,129589
1631024037758,21873,147591,129639
1631024037768,21877,147630,129679
1631024037778,21877,147672,129696
1631024037788,21882,147667,129714
1631024037798,21881,147670,129715
1631024037808,21879,147675,129726
1631024037818,21879,147696,129714
1631024037828,21881,147696,129711
1631024037838,21879,147672,129729
1631024037848,21879,147706,129725
1631024037858,21882,147691,129701
1631024037868,21879,147709,129726
1631024037878,21882,147736,129733
1631024037888,21880,147727,129756
1631024037898,21887,147766,129770
1631024037908,21883,147781,129784
1631024037918,21892,147795,129792
1631024037928,21892,147834,129817
1631024037938,21892,147807,129855
1631024037948,21900,147839,129855
1631024037958,21901,147845,129855
1631024037968,21899,147888,129873
1631024037978,21903,147891,129865
1631024037988,21909,147924,129878
1631024037998,21909,147928,129908
1631024038008,21915,147966,129925
1631024038018,21921,147969,129933
1631024038028,21923,147990,129959
1631024038038,21928,148021,129974
1631024038048,21931,148055,129989
1631024038058,21933,148066,129995
1631024038068,21944,148088,130017
1631024038078,21945,148116,130021
1631024038088,21952,148151,130035
1631024038098,21954,148178,130066
1631024038108,21952,148198,130093
1631024038118,21971,148214,130102
1631024038128,21974,148236,130114
1631024038138,21979,148268,130132
1631024038148,21989,148268,130121
1631024038158,21990,148283,130154
1631024038168,21993,148316,130150
1631024038178,21999,148334,130175
1631024038188,21998,148354,130161
1631024038198,22007,148378,130185
1631024038208,22012,148386,130196
1631024038218,22024,148405,130201
1631024038228,22023,148425,130210
1631024038238,22030,148440,130213
1631024038248,22031,148438,130226
1631024038258,22035,148467,130227
1631024038268,22052,148472,130229
1631024038278,22041,148481,130235
1631024038288,22058,148485,130244
1631024038298,22063,148528,130259
1631024038308,22056,148571,130269
1631024038318,22075,148555,130286
1631024038328,22079,148602,130288
1631024038338,22087,148640,130329
1631024038348,22094,148675,130337
1631024038358,22104,148669,130359
1631024038368,22102,148644,130320
1631024038378,22100,148542,130223
1631024038388,22092,148416,130091
1631024038398,22082,148279,130012
1631024038408,22071,148208,129942
1631024038418,22064,148153,129903
1631024038428,22060,148125,129906
1631024038438,22050,148115,129906
1631024038448,22040,148122,129928
1631024038458,22026,148108,129908
1631024038468,22020,148088,129904
1631024038478,22015,148087,129915
1631024038488,22007,148056,129901
1631024038498,22001,148040,129886
1631024038508,21992,148020,129891
1631024038518,21990,148049,129910
1631024038528,21985,148055,129913
1631024038538,21983,148050,129920
1631024038548,21979,148046,129905
1631024038558,21976,148028,129910
1631024038568,21971,148021,129900
1631024038578,21963,148005,129885
1631024038588,21957,147992,129869
1631024038598,21951,148000,129896
1631024038608,21951,148013,129934
1631024038618,21958,148092,129975
1631024038628,21955,148112,130003
1631024038638,21964,148123,130001
1631024038648,21960,148087,129993
1631024038658,21959,148082,129960
1631024038668,21959,148056,129966
1631024038678,21955,148043,129959
1631024038688,21953,148062,129941
1631024038698,21951,148037,129940
1631024038708,21946,148025,129933
1631024038718,21951,148045,129921
1631024038728,21950,148036,129913
1631024038738,21953,148020,129934
1631024038748,21950,148025,129920
1631024038758,21945,148028,129927
1631024038768,21958,148008,129916
1631024038778,21954,148033,129924
1631024038788,21945,148043,129920
1631024038798,21947,148065,129927
1631024038808,21957,148041,129932
1631024038818,21959,148057,129943
1631024038828,21960,148094,129938
1631024038838,21958,148095,129961
1631024038848,21969,148109,129970
1631024038858,21965,148107,129988
1631024038868,21970,148152,130002
1631024038878,21974,148166,130008
1631024038888,21978,148182,130020
1631024038898,21980,148198,130058
1631024038908,21992,148234,130043
1631024038918,21994,148215,130056
1631024038928,21992,148235,130049
1631024038938,21998,148251,130069
1631024038948,22006,148255,130068
1631024038958,22011,148291,130077
1631024038968,22002,148303,130068
1631024038978,22008,148329,130098
1631024038988,22017,148329,130098
1631024038998,22021,148352,130091
1631024039008,22033,148344,130109
1631024039018,22033,148372,130126
1631024039028,22035,148384,130139
1631024039038,22042,148393,130154
1631024039048,22047,148402,130161
1631024039058,22052,148426,130127
1631024039068,22056,148422,130148
1631024039078,22067,148458,130149
1631024039088,22065,148442,130142
1631024039098,22062,148453,130143
1631024039108,22074,148463,130141
1631024039118,22076,148474,130173
1631024039128,22084,148509,130173
1631024039138,22082,148532,130170
1631024039148,22087,148525,130177
1631024039158,22099,148538,130195
1631024039168,22100,148566,130194
1631024039178,22106,148519,130167
1631024039188,22103,148444,130103
1631024039198,22095,148335,129996
1631024039208,22089,148228,129899
1631024039218,22077,148128,129820
1631024039228,22071,148059,129782
1631024039238,22058,148023,129768
1631024039248,22048,148033,129769
1631024039258,22043,147995,129800
1631024039268,22033,147977,129779
1631024039278,22026,147969,129774
1631024039288,22014,147950,129759
1631024039298,22003,147923,129735
1631024039308,21994,147907,129721
1631024039318,21987,147884,129747
1631024039328,21981,147879,129747
1631024039338,21982,147899,129753
1631024039348,21969,147877,129758
1631024039358,21965,147869,129765
1631024039368,21961,147885,129765
1631024039378,21954,147870,129753
1631024039388,21952,147862,129764
1631024039398,21954,147854,129787
1631024039408,21941,147878,129791
1631024039418,21943,147852,129805
1631024039428,21941,147917,129857
1631024039438,21944,147960,129869
1631024039448,21941,147964,129899
1631024039458,21935,147993,129919
1631024039468,21946,147982,129902
1631024039478,21938,147966,129912
