timestamp,green,ir,red
1631023450730,24221,167030,146047
1631023450740,24229,166973,145989
1631023450750,24219,166894,145900
1631023450760,24225,166768,145846
1631023450770,24221,166696,145766
1631023450780,24217,166642,145744
1631023450790,24211,166583,145711
1631023450800,24197,166535,145702
1631023450810,24187,166480,145696
1631023450820,24186,166470,145702
1631023450830,24173,166475,145695
1631023450840,24166,166460,145716
1631023450850,24154,166435,145706
1631023450860,24151,166418,145705
1631023450870,24141,166403,145703
1631023450880,24135,166434,145715
1631023450890,24134,166438,145712
1631023450900,24128,166418,145721
1631023450910,24122,166414,145713
1631023450920,24114,166393,145712
1631023450930,24111,166351,145697
1631023450940,24107,166351,145699
1631023450950,24101,166374,145695
1631023450960,24094,166342,145706
1631023450970,24086,166330,145695
1631023450980,24074,166335,145708
1631023450990,24082,166334,145729
1631023451000,24080,166382,145758
1631023451010,24092,166404,145780
1631023451020,24089,166425,145795
1631023451030,24083,166394,145780
1631023451040,24089,166382,145767
1631023451050,24089,166399,145789
1631023451060,24096,166433,145804
1631023451070,24095,166438,145817
1631023451080,24104,166481,145873
1631023451090,24112,166558,145928
1631023451100,24112,166585,145995
1631023451110,24122,166668,146032
1631023451120,24124,166696,146083
1631023451130,24136,166712,146101
1631023451140,24136,166745,146132
1631023451150,24137,166781,146143
1631023451160,24144,166798,146189
1631023451170,24158,166863,146258
1631023451180,24165,166922,146323
1631023451190,24173,166969,146388
1631023451200,24182,167062,146475
1631023451210,24192,167142,146563
1631023451220,24208,167186,146621
1631023451230,24211,167246,146658
1631023451240,24223,167292,146696
1631023451250,24227,167318,146708
1631023451260,24244,167393,146797
1631023451270,24256,167475,146861
1631023451280,24257,167484,146871
1631023451290,24268,167557,146915
1631023451300,24278,167636,146966
1631023451310,24287,167633,146955
1631023451320,24296,167625,146960
1631023451330,24303,167671,146998
1631023451340,24310,167732,147021
1631023451350,24318,167779,147068
1631023451360,24312,167760,147016
1631023451370,24329,167855,147117
1631023451380,24336,167865,147133
1631023451390,24341,167924,147135
1631023451400,24355,167974,147167
1631023451410,24356,167940,147096
1631023451420,24356,167963,147114
1631023451430,24346,167824,146955
1631023451440,24346,167778,146879
1631023451450,24351,167887,146953
1631023451460,24360,167893,146948
1631023451470,24366,167968,147005
1631023451480,24370,167959,146982
1631023451490,24368,168029,146960
1631023451500,24365,168046,146949
1631023451510,24367,168006,146921
1631023451520,24370,168003,146912
1631023451530,24376,168025,146921
1631023451540,24386,168095,146946
1631023451550,24392,168162,147000
1631023451560,24405,168206,147053
1631023451570,24414,168321,147106
1631023451580,24434,168401,147185
1631023451590,24451,168399,147220
1631023451600,24458,168432,147236
1631023451610,24460,168399,147263
1631023451620,24491,168447,147348
1631023451630,24496,168558,147470
1631023451640,24509,168658,147649
1631023451650,24538,168804,147803
1631023451660,24551,168936,147977
1631023451670,24561,169088,148148
1631023451680,24576,169186,148276
1631023451690,24577,169223,148349
1631023451700,24587,169294,148425
1631023451710,24596,169316,148463
1631023451720,24603,169297,148489
1631023451730,24604,169269,148486
1631023451740,24609,169299,148486
1631023451750,24610,169314,148561
1631023451760,24618,169314,148551
1631023451770,24616,169254,148535
1631023451780,24618,169231,148491
1631023451790,24624,169191,148512
1631023451800,24617,169177,148472
1631023451810,24619,169162,148480
1631023451820,24617,169160,148481
1631023451830,24613,169096,148426
1631023451840,24609,169037,148401
1631023451850,24607,168980,148310
1631023451860,24598,168886,148253
1631023451870,24604,168818,148184
1631023451880,24601,168710,148128
1631023451890,24601,168677,148080
1631023451900,24600,168574,148028
1631023451910,24598,168532,147957
1631023451920,24595,168465,147919
1631023451930,24592,168432,147923
1631023451940,24592,168410,147927
1631023451950,24602,168413,147935
1631023451960,24604,168402,147880
1631023451970,24591,168353,147815
1631023451980,24599,168298,147786
1631023451990,24588,168263,147723
1631023452000,24587,168206,147709
1631023452010,24588,168168,147670
1631023452020,24581,168153,147586
1631023452030,24573,168079,147533
1631023452040,24580,168001,147481
1631023452050,24572,167950,147450
1631023452060,24572,167963,147409
1631023452070,24574,167973,147411
1631023452080,24577,167947,147382
1631023452090,24582,167923,147355
1631023452100,24572,167922,147339
1631023452110,24575,167928,147327
1631023452120,24581,167958,147346
1631023452130,24591,167946,147355
1631023452140,24601,167988,147381
1631023452150,24608,168036,147409
1631023452160,24620,168091,147447
1631023452170,24626,168158,147507
1631023452180,24629,168194,147544
1631023452190,24642,168270,147603
1631023452200,24654,168342,147645
1631023452210,24661,168414,147730
1631023452220,24675,168524,147816
1631023452230,24684,168588,147873
1631023452240,24692,168653,147917
1631023452250,24701,168690,147944
1631023452260,24703,168726,147985
1631023452270,24709,168741,148001
1631023452280,24715,168788,148003
1631023452290,24727,168780,148006
1631023452300,24720,168802,148009
1631023452310,24731,168819,148006
1631023452320,24729,168777,147979
1631023452330,24732,168759,147940
1631023452340,24726,168770,147925
1631023452350,24726,168762,147896
1631023452360,24721,168679,147802
1631023452370,24719,168583,147697
1631023452380,24703,168465,147599
1631023452390,24695,168321,147475
1631023452400,24680,168219,147401
1631023452410,24665,168071,147296
1631023452420,24642,167972,147181
1631023452430,24626,167874,147104
1631023452440,24601,167767,147017
1631023452450,24587,167674,146919
1631023452460,24559,167574,146829
1631023452470,24536,167444,146718
1631023452480,24524,167358,146606
1631023452490,24499,167235,146482
1631023452500,24483,167140,146405
1631023452510,24472,167040,146313
1631023452520,24452,166986,146263
1631023452530,24450,166973,146225
1631023452540,24435,166884,146169
1631023452550,24425,166836,146138
1631023452560,24417,166816,146069
1631023452570,24406,166731,146054
1631023452580,24393,166722,146024
1631023452590,24384,166702,146007
1631023452600,24372,166674,145989
1631023452610,24370,166688,145986
1631023452620,24364,166702,145984
1631023452630,24365,166708,145995
1631023452640,24365,166712,145992
1631023452650,24357,166692,145965
1631023452660,24357,166687,145944
1631023452670,24352,166702,145943
1631023452680,24350,166678,145946
1631023452690,24346,166682,145942
1631023452700,24347,166673,145938
1631023452710,24342,166664,145905
1631023452720,24343,166674,145920
1631023452730,24343,166682,145903
1631023452740,24342,166703,145932
1631023452750,24344,166699,145894
1631023452760,24346,166683,145900
1631023452770,24334,166655,145886
1631023452780,24343,166689,145911
1631023452790,24344,166725,145924
1631023452800,24344,166741,145968
1631023452810,24348,166778,145974
1631023452820,24350,166771,145977
1631023452830,24352,166787,145986
1631023452840,24355,166799,146012
1631023452850,24358,166823,146020
1631023452860,24366,166846,146021
1631023452870,24364,166855,146031
1631023452880,24372,166858,146048
1631023452890,24372,166838,146034
1631023452900,24376,166828,146013
1631023452910,24382,166792,145979
1631023452920,24386,166752,145959
1631023452930,24383,166753,145941
1631023452940,24395,166683,145925
1631023452950,24381,166617,145858
1631023452960,24385,166592,145807
1631023452970,24384,166545,145775
1631023452980,24384,166497,145738
1631023452990,24387,166469,145702
1631023453000,24386,166431,145671
1631023453010,24382,166404,145614
1631023453020,24383,166327,145583
1631023453030,24375,166262,145531
1631023453040,24371,166234,145487
1631023453050,24368,166189,145463
1631023453060,24376,166180,145446
1631023453070,24377,166156,145435
1631023453080,24377,166180,145397
1631023453090,24373,166155,145387
1631023453100,24372,166137,145387
1631023453110,24380,166139,145376
1631023453120,24378,166143,145349
1631023453130,24376,166071,145313
1631023453140,24372,165941,145219
1631023453150,24366,165835,145110
1631023453160,24358,165736,145061
1631023453170,24355,165679,145028
1631023453180,24347,165658,145038
1631023453190,24340,165627,145022
1631023453200,24324,165641,145020
1631023453210,24303,165609,145004
1631023453220,24295,165583,145002
1631023453230,24276,165545,144979
1631023453240,24270,165531,144966
1631023453250,24251,165488,144951
1631023453260,24240,165461,144903
1631023453270,24222,165426,144871
1631023453280,24212,165399,144883
1631023453290,24195,165390,144860
1631023453300,24192,165360,144833
1631023453310,24185,165311,144816
1631023453320,24174,165288,144797
1631023453330,24161,165299,144787
1631023453340,24153,165272,144804
1631023453350,24147,165251,144780
1631023453360,24136,165268,144801
1631023453370,24135,165284,144812
1631023453380,24130,165324,144870
1631023453390,24128,165358,144872
1631023453400,24139,165359,144862
1631023453410,24137,165397,144928
1631023453420,24137,165457,144954
1631023453430,24144,165497,145000
1631023453440,24134,165531,145030
1631023453450,24136,165551,145037
1631023453460,24146,165579,145068
1631023453470,24151,165653,145119
1631023453480,24163,165727,145207
1631023453490,24165,165801,145276
1631023453500,24170,165858,145337
1631023453510,24172,165901,145385
1631023453520,24173,165906,145388
1631023453530,24177,165929,145403
1631023453540,24180,165973,145413
1631023453550,24181,165958,145430
1631023453560,24180,165989,145465
1631023453570,24191,165990,145448
1631023453580,24191,165978,145458
1631023453590,24191,165981,145454
1631023453600,24195,165976,145476
1631023453610,24195,166019,145462
1631023453620,24200,166022,145496
1631023453630,24196,166056,145504
1631023453640,24204,166092,145535
1631023453650,24210,166134,145560
1631023453660,24216,166114,145586
1631023453670,24223,166156,145609
1631023453680,24225,166197,145629
1631023453690,24232,166212,145656
1631023453700,24238,166241,145678
1631023453710,24232,166171,145618
1631023453720,24238,166219,145652
1631023453730,24239,166180,145630
1631023453740,24248,166170,145613
1631023453750,24243,166139,145598
1631023453760,24244,166134,145552
1631023453770,24249,166150,145567
1631023453780,24245,166132,145561
1631023453790,24249,166153,145564
1631023453800,24250,166152,145532
1631023453810,24251,166141,145502
1631023453820,24251,166129,145493
1631023453830,24251,166094,145463
1631023453840,24252,166077,145425
1631023453850,24257,166041,145401
1631023453860,24255,165964,145314
1631023453870,24250,165826,145211
1631023453880,24247,165691,145103
1631023453890,24235,165604,145025
1631023453900,24228,165520,144993
1631023453910,24222,165463,144951
1631023453920,24206,165406,144930
1631023453930,24201,165381,144902
1631023453940,24180,165340,144900
1631023453950,24169,165324,144918
1631023453960,24157,165285,144891
1631023453970,24155,165271,144889
1631023453980,24145,165253,144846
1631023453990,24125,165193,144820
1631023454000,24115,165190,144832
1631023454010,24108,165179,144828
1631023454020,24105,165139,144805
1631023454030,24091,165117,144776
1631023454040,24079,165059,144762
1631023454050,24075,165019,144712
1631023454060,24067,165014,144699
1631023454070,24045,164970,144716
1631023454080,24046,164954,144682
1631023454090,24045,164972,144707
1631023454100,24029,165012,144724
1631023454110,24025,164979,144716
1631023454120,24023,164955,144702
1631023454130,24016,164927,144656
1631023454140,24016,164912,144640
1631023454150,24011,164910,144645
1631023454160,24011,164867,144622
1631023454170,24003,164852,144617
1631023454180,23998,164822,144605
1631023454190,23991,164799,144605
1631023454200,23995,164845,144605
1631023454210,24002,164861,144623
1631023454220,23987,164883,144653
1631023454230,23984,164870,144674
1631023454240,23982,164934,144687
1631023454250,23992,164909,144687
1631023454260,23988,164919,144719
1631023454270,23990,164962,144752
1631023454280,23992,164989,144772
1631023454290,24001,164996,144767
1631023454300,23997,165041,144809
1631023454310,23998,165049,144796
1631023454320,24004,165087,144805
1631023454330,24003,165086,144825
1631023454340,24008,165093,144836
1631023454350,24017,165127,144848
1631023454360,24014,165159,144876
1631023454370,24020,165146,144875
1631023454380,24026,165168,144885
1631023454390,24024,165184,144891
1631023454400,24033,165204,144893
1631023454410,24040,165247,144895
1631023454420,24039,165224,144912
1631023454430,24047,165287,144925
1631023454440,24048,165288,144914
1631023454450,24054,165330,144936
1631023454460,24055,165290,144924
1631023454470,24056,165296,144907
1631023454480,24059,165268,144867
1631023454490,24064,165250,144844
1631023454500,24062,165243,144831
1631023454510,24069,165250,144845
1631023454520,24074,165306,144876
1631023454530,24080,165334,144910
1631023454540,24083,165346,144888
1631023454550,24097,165375,144911
1631023454560,24106,165397,144920
1631023454570,24103,165430,144949
1631023454580,24111,165470,144969
1631023454590,24122,165438,144960
1631023454600,24126,165404,144901
1631023454610,24119,165347,144809
1631023454620,24118,165212,144754
1631023454630,24113,165144,144709
1631023454640,24107,165079,144679
1631023454650,24104,165077,144667
1631023454660,24091,165023,144670
1631023454670,24082,165001,144660
1631023454680,24079,164985,144653
1631023454690,24067,164955,144660
1631023454700,24054,164967,144656
1631023454710,24050,164965,144692
1631023454720,24048,164950,144685
1631023454730,24037,164936,144649
1631023454740,24034,164917,144683
1631023454750,24030,164921,144695
1631023454760,24020,164948,144721
1631023454770,24018,164933,144713
1631023454780,24013,164928,144727
1631023454790,24003,164895,144701
1631023454800,23998,164896,144698
1631023454810,23989,164895,144692
1631023454820,23988,164845,144704
1631023454830,23988,164870,144677
1631023454840,23979,164885,144701
1631023454850,23978,164916,144733
1631023454860,23973,164934,144740
1631023454870,23977,164974,144767
1631023454880,23987,164954,144747
1631023454890,23974,164954,144772
1631023454900,23983,164955,144747
1631023454910,23975,164963,144740
1631023454920,23974,164924,144751
1631023454930,23971,164929,144739
1631023454940,23977,164932,144747
1631023454950,23976,164970,144729
1631023454960,23981,164957,144752
1631023454970,23981,164965,144747
1631023454980,23983,164971,144747
1631023454990,23987,164979,144756
1631023455000,23985,165003,144770
1631023455010,23991,165031,144789
1631023455020,24000,165045,144790
1631023455030,23996,165053,144814
1631023455040,24003,165081,144805
1631023455050,24007,165103,144837
1631023455060,24004,165086,144822
1631023455070,24009,165131,144862
1631023455080,24012,165137,144857
1631023455090,24018,165166,144844
1631023455100,24026,165172,144869
1631023455110,24026,165191,144864
1631023455120,24038,165196,144870
1631023455130,24040,165247,144895
1631023455140,24044,165233,144904
1631023455150,24046,165252,144902
1631023455160,24051,165258,144900
1631023455170,24054,165281,144921
1631023455180,24063,165307,144933
1631023455190,24078,165319,144944
1631023455200,24078,165363,144949
1631023455210,24081,165394,144962
1631023455220,24097,165345,144945
1631023455230,24095,165398,144970
1631023455240,24103,165400,144947
1631023455250,24105,165422,144985
1631023455260,24106,165451,144981
1631023455270,24115,165451,144976
1631023455280,24118,165480,144983
1631023455290,24123,165459,144987
1631023455300,24133,165488,144986
1631023455310,24144,165501,145004
1631023455320,24145,165516,144993
1631023455330,24152,165528,145008
1631023455340,24158,165530,145010
1631023455350,24162,165586,144992
1631023455360,24174,165539,144996
1631023455370,24183,165591,145031
1631023455380,24183,165588,145030
1631023455390,24199,165667,145065
1631023455400,24204,165677,145095
1631023455410,24215,165709,145090
1631023455420,24221,165753,145109
1631023455430,24223,165743,145097
1631023455440,24238,165739,145100
1631023455450,24242,165682,145047
1631023455460,24241,165617,144999
1631023455470,24239,165526,144926
1631023455480,24240,165453,144899
1631023455490,24235,165413,144857
1631023455500,24234,165374,144857
1631023455510,24232,165358,144836
1631023455520,24223,165334,144847
1631023455530,24204,165324,144855
1631023455540,24212,165317,144852
1631023455550,24206,165299,144848
1631023455560,24200,165285,144874
1631023455570,24194,165299,144863
1631023455580,24187,165293,144878
1631023455590,24184,165285,144887
1631023455600,24184,165278,144908
1631023455610,24181,165287,144903
1631023455620,24177,165284,144911
1631023455630,24183,165305,144913
1631023455640,24173,165284,144913
1631023455650,24170,165276,144923
1631023455660,24166,165300,144909
1631023455670,24165,165274,144929
1631023455680,24159,165277,144921
1631023455690,24153,165287,144939
1631023455700,24155,165320,144993
1631023455710,24157,165368,145012
1631023455720,24157,165378,145046
1631023455730,24157,165394,145039
1631023455740,24162,165401,145044
1631023455750,24162,165395,145047
1631023455760,24165,165406,145046
1631023455770,24164,165364,145023
1631023455780,24165,165388,145034
1631023455790,24168,165388,145042
1631023455800,24167,165396,145046
1631023455810,24176,165418,145055
1631023455820,24175,165448,145051
1631023455830,24166,165401,145051
1631023455840,24177,165436,145064
1631023455850,24177,165449,145045
1631023455860,24189,165468,145075
1631023455870,24187,165461,145081
1631023455880,24188,165472,145093
1631023455890,24192,165485,145113
1631023455900,24195,165514,145119
1631023455910,24197,165514,145133
1631023455920,24206,165571,145139
1631023455930,24209,165595,145144
1631023455940,24213,165611,145163
1631023455950,24220,165614,145188
1631023455960,24230,165646,145191
1631023455970,24231,165657,145190
1631023455980,24243,165674,145208
1631023455990,24241,165709,145226
1631023456000,24244,165727,145246
1631023456010,24264,165764,145276
1631023456020,24259,165799,145298
1631023456030,24272,165780,145305
1631023456040,24285,165826,145315
1631023456050,24275,165821,145314
1631023456060,24287,165864,145315
1631023456070,24291,165876,145350
1631023456080,24304,165897,145354
1631023456090,24305,165894,145354
1631023456100,24311,165920,145364
1631023456110,24323,165940,145375
1631023456120,24324,165944,145371
1631023456130,24330,165961,145370
1631023456140,24338,165970,145370
1631023456150,24344,165949,145374
1631023456160,24350,165987,145379
1631023456170,24357,166028,145388
1631023456180,24363,166025,145394
1631023456190,24378,166053,145408
1631023456200,24368,166081,145411
1631023456210,24386,166106,145422
1631023456220,24390,166111,145440
1631023456230,24395,166112,145446
1631023456240,24404,166159,145464
1631023456250,24408,166162,145467
1631023456260,24419,166178,145470
1631023456270,24425,166207,145495
1631023456280,24430,166220,145487
1631023456290,24439,166259,145515
1631023456300,24446,166283,145536
1631023456310,24456,166314,145551
1631023456320,24453,166320,145552
1631023456330,24469,166290,145533
1631023456340,24480,166293,145522
1631023456350,24480,166235,145448
1631023456360,24481,166109,145353
1631023456370,24479,166033,145298
1631023456380,24476,165975,145273
1631023456390,24480,165947,145282
1631023456400,24475,165925,145273
1631023456410,24471,165884,145272
1631023456420,24466,165899,145283
1631023456430,24469,165899,145303
1631023456440,24453,165861,145277
1631023456450,24448,165844,145266
1631023456460,24440,165845,145251
1631023456470,24434,165847,145262
1631023456480,24433,165833,145264
1631023456490,24429,165854,145261
1631023456500,24427,165843,145317
1631023456510,24429,165854,145322
1631023456520,24427,165856,145299
1631023456530,24419,165840,145275
1631023456540,24416,165820,145289
1631023456550,24413,165832,145280
1631023456560,24408,165778,145262
1631023456570,24403,165815,145284
1631023456580,24403,165831,145305
1631023456590,24411,165853,145349
1631023456600,24410,165917,145352
1631023456610,24408,165915,145356
1631023456620,24410,165874,145351
1631023456630,24406,165897,145343
1631023456640,24405,165906,145323
1631023456650,24409,165862,145318
1631023456660,24414,165883,145309
1631023456670,24406,165882,145316
1631023456680,24406,165907,145332
1631023456690,24409,165907,145345
1631023456700,24406,165889,145333
1631023456710,24410,165862,145317
1631023456720,24403,165880,145321
1631023456730,24405,165869,145316
1631023456740,24411,165899,145323
1631023456750,24412,165899,145329
1631023456760,24415,165906,145323
1631023456770,24419,165894,145341
1631023456780,24423,165916,145335
1631023456790,24421,165958,145356
1631023456800,24418,165938,145352
1631023456810,24425,165930,145357
1631023456820,24431,165947,145389
1631023456830,24435,165985,145374
1631023456840,24430,165995,145370
1631023456850,24444,166003,145384
1631023456860,24436,166044,145423
1631023456870,24446,166060,145422
1631023456880,24449,166107,145445
1631023456890,24450,166093,145437
1631023456900,24451,166109,145424
1631023456910,24458,166116,145459
1631023456920,24459,166121,145462
1631023456930,24475,166153,145451
1631023456940,24470,166172,145463
1631023456950,24474,166166,145462
1631023456960,24481,166189,145463
1631023456970,24485,166188,145465
1631023456980,24488,166201,145461
1631023456990,24499,166220,145459
1631023457000,24501,166250,145491
1631023457010,24508,166232,145469
1631023457020,24511,166278,145503
1631023457030,24513,166280,145502
1631023457040,24518,166299,145496
1631023457050,24528,166324,145520
1631023457060,24533,166340,145511
1631023457070,24536,166372,145536
1631023457080,24536,166353,145531
1631023457090,24547,166369,145521
1631023457100,24556,166404,145532
1631023457110,24564,166401,145539
1631023457120,24566,166416,145544
1631023457130,24573,166431,145554
1631023457140,24571,166443,145545
1631023457150,24574,166446,145559
1631023457160,24587,166467,145546
1631023457170,24593,166504,145577
1631023457180,24595,166524,145582
1631023457190,24604,166561,145606
1631023457200,24606,166563,145610
1631023457210,24614,166505,145586
1631023457220,24613,166432,145501
1631023457230,24610,166348,145410
1631023457240,24605,166245,145356
1631023457250,24598,166181,145309
1631023457260,24594,166096,145270
1631023457270,24584,166069,145247
1631023457280,24578,166046,145238
1631023457290,24569,166011,145226
1631023457300,24558,165982,145236
1631023457310,24549,165985,145210
1631023457320,24532,165951,145188
1631023457330,24521,165925,145205
1631023457340,24507,165915,145212
1631023457350,24502,165908,145218
1631023457360,24494,165887,145207
1631023457370,24488,165904,145232
1631023457380,24483,165873,145228
1631023457390,24474,165891,145238
1631023457400,24461,165904,145228
1631023457410,24463,165885,145240
1631023457420,24453,165838,145210
1631023457430,24442,165839,145222
1631023457440,24431,165831,145216
1631023457450,24430,165828,145214
1631023457460,24423,165842,145242
1631023457470,24414,165823,145249
1631023457480,24404,165866,145271
1631023457490,24404,165849,145262
1631023457500,24402,165820,145219
1631023457510,24399,165800,145203
1631023457520,24385,165793,145192
1631023457530,24384,165770,145170
1631023457540,24379,165747,145159
1631023457550,24373,165744,145150
1631023457560,24370,165725,145144
1631023457570,24368,165728,145148
1631023457580,24365,165713,145167
1631023457590,24369,165751,145187
1631023457600,24365,165776,145190
1631023457610,24364,165772,145209
1631023457620,24366,165794,145224
1631023457630,24369,165802,145238
1631023457640,24367,165824,145253
1631023457650,24364,165814,145256
1631023457660,24355,165844,145244
1631023457670,24356,165826,145262
1631023457680,24359,165847,145268
1631023457690,24360,165859,145254
1631023457700,24358,165882,145270
1631023457710,24364,165910,145262
1631023457720,24361,165895,145268
1631023457730,24367,165910,145279
1631023457740,24365,165938,145303
1631023457750,24367,165931,145278
1631023457760,24370,165925,145283
1631023457770,24369,165955,145277
1631023457780,24372,165963,145298
1631023457790,24386,165964,145297
1631023457800,24376,165963,145273
1631023457810,24385,165985,145300
1631023457820,24392,165994,145293
1631023457830,24384,165995,145293
1631023457840,24386,165987,145286
1631023457850,24385,165997,145263
1631023457860,24390,165991,145293
1631023457870,24390,165984,145272
1631023457880,24394,165989,145256
1631023457890,24396,165989,145246
1631023457900,24407,165985,145259
1631023457910,24407,166005,145262
1631023457920,24408,166038,145258
1631023457930,24417,166041,145259
1631023457940,24419,166032,145271
1631023457950,24414,166070,145275
1631023457960,24431,166107,145268
1631023457970,24433,166078,145292
1631023457980,24431,166078,145290
1631023457990,24432,166088,145295
1631023458000,24441,166115,145274
1631023458010,24448,166132,145296
1631023458020,24445,166115,145267
1631023458030,24447,166156,145279
1631023458040,24457,166130,145267
1631023458050,24457,166129,145259
1631023458060,24464,166139,145259
1631023458070,24472,166139,145250
1631023458080,24469,166128,145246
1631023458090,24470,166139,145257
1631023458100,24480,166167,145286
1631023458110,24488,166190,145278
1631023458120,24488,166169,145234
1631023458130,24485,166090,145175
1631023458140,24493,165980,145094
1631023458150,24485,165882,145030
1631023458160,24483,165846,145020
1631023458170,24469,165771,144977
1631023458180,24456,165724,144965
1631023458190,24446,165675,144947
1631023458200,24430,165683,144955
1631023458210,24421,165610,144953
1631023458220,24405,165620,144952
1631023458230,24390,165604,144911
1631023458240,24376,165581,144911
1631023458250,24366,165556,144916
1631023458260,24356,165552,144934
1631023458270,24342,165542,144911
1631023458280,24330,165553,144917
1631023458290,24338,165543,144939
1631023458300,24316,165535,144938
1631023458310,24304,165494,144940
1631023458320,24291,165495,144927
1631023458330,24284,165484,144921
1631023458340,24274,165445,144912
1631023458350,24264,165437,144918
1631023458360,24249,165432,144915
1631023458370,24246,165450,144933
1631023458380,24235,165480,144946
1631023458390,24230,165493,144960
1631023458400,24224,165508,144963
1631023458410,24221,165515,144954
1631023458420,24218,165477,144924
1631023458430,24218,165456,144910
1631023458440,24210,165448,144929
1631023458450,24195,165430,144883
1631023458460,24194,165397,144871
1631023458470,24192,165390,144846
1631023458480,24178,165402,144860
1631023458490,24181,165387,144839
1631023458500,24181,165357,144863
1631023458510,24175,165374,144856
1631023458520,24169,165383,144843
1631023458530,24167,165350,144847
1631023458540,24160,165381,144852
1631023458550,24161,165372,144841
1631023458560,24154,165354,144844
1631023458570,24154,165355,144841
1631023458580,24155,165363,144843
1631023458590,24154,165348,144819
1631023458600,24149,165321,144825
1631023458610,24156,165357,144832
1631023458620,24155,165351,144788
1631023458630,24159,165334,144806
1631023458640,24160,165326,144793
1631023458650,24157,165327,144805
1631023458660,24162,165341,144812
1631023458670,24157,165347,144812
1631023458680,24166,165331,144799
1631023458690,24164,165358,144831
1631023458700,24170,165344,144820
1631023458710,24175,165394,144821
1631023458720,24175,165401,144835
1631023458730,24180,165397,144834
1631023458740,24185,165425,144841
1631023458750,24183,165442,144852
1631023458760,24186,165450,144865
1631023458770,24196,165413,144836
1631023458780,24193,165448,144873
1631023458790,24196,165468,144873
1631023458800,24203,165481,144872
1631023458810,24207,165512,144874
1631023458820,24213,165533,144897
1631023458830,24217,165534,144911
1631023458840,24222,165562,144905
1631023458850,24222,165588,144919
1631023458860,24232,165590,144934
1631023458870,24236,165625,144936
1631023458880,24234,165649,144941
1631023458890,24245,165650,144967
1631023458900,24243,165690,144980
1631023458910,24254,165706,144991
1631023458920,24258,165729,144992
1631023458930,24268,165738,144996
1631023458940,24269,165752,145018
1631023458950,24276,165791,145018
1631023458960,24282,165803,145030
1631023458970,24285,165829,145055
1631023458980,24292,165886,145080
1631023458990,24304,165878,145098
1631023459000,24310,165922,145097
1631023459010,24314,165959,145136
1631023459020,24323,165980,145144
1631023459030,24333,165970,145119
1631023459040,24333,165904,145058
1631023459050,24326,165780,144985
1631023459060,24328,165709,144937
1631023459070,24329,165656,144875
1631023459080,24317,165529,144847
1631023459090,24308,165525,144847
1631023459100,24289,165473,144831
1631023459110,24292,165465,144831
1631023459120,24265,165438,144847
1631023459130,24256,165412,144834
1631023459140,24243,165402,144828
1631023459150,24237,165397,144820
1631023459160,24224,165371,144832
1631023459170,24216,165382,144821
1631023459180,24209,165387,144841
1631023459190,24207,165359,144867
1631023459200,24197,165371,144862
1631023459210,24189,165365,144859
1631023459220,24183,165367,144860
1631023459230,24186,165347,144880
1631023459240,24174,165350,144860
1631023459250,24163,165327,144865
1631023459260,24149,165322,144849
1631023459270,24146,165299,144850
1631023459280,24149,165338,144843
1631023459290,24143,165356,144889
1631023459300,24142,165387,144904
1631023459310,24142,165410,144926
1631023459320,24142,165410,144914
1631023459330,24141,165373,144895
1631023459340,24142,165355,144883
1631023459350,24137,165351,144873
1631023459360,24142,165349,144869
1631023459370,24135,165363,144881
1631023459380,24137,165356,144879
1631023459390,24138,165365,144888
1631023459400,24141,165374,144878
1631023459410,24141,165380,144896
1631023459420,24139,165365,144912
1631023459430,24145,165378,144925
1631023459440,24137,165366,144920
1631023459450,24147,165391,144914
1631023459460,24141,165381,144922
1631023459470,24145,165412,144918
1631023459480,24147,165414,144921
1631023459490,24149,165417,144924
1631023459500,24154,165418,144934
1631023459510,24152,165431,144945
1631023459520,24155,165452,144945
1631023459530,24163,165471,144982
1631023459540,24164,165474,144988
1631023459550,24171,165512,144987
1631023459560,24175,165509,144996
1631023459570,24181,165541,145008
1631023459580,24177,165544,145012
1631023459590,24195,165552,145034
1631023459600,24205,165620,145033
1631023459610,24201,165613,145052
1631023459620,24208,165625,145064
1631023459630,24215,165613,145058
1631023459640,24215,165649,145074
1631023459650,24225,165667,145078
1631023459660,24233,165685,145070
1631023459670,24239,165691,145068
1631023459680,24243,165708,145089
1631023459690,24247,165726,145073
1631023459700,24255,165714,145078
1631023459710,24251,165712,145086
1631023459720,24257,165726,145080
1631023459730,24258,165735,145106
1631023459740,24273,165747,145094
1631023459750,24277,165787,145104
1631023459760,24294,165810,145103
1631023459770,24294,165817,145132
1631023459780,24302,165820,145130
1631023459790,24310,165838,145122
1631023459800,24316,165845,145158
1631023459810,24320,165900,145154
1631023459820,24331,165882,145152
1631023459830,24339,165918,145172
1631023459840,24342,165920,145171
1631023459850,24354,165937,145179
1631023459860,24358,165961,145178
1631023459870,24367,165987,145206
1631023459880,24377,166005,145216
1631023459890,24391,166035,145212
1631023459900,24388,166013,145218
1631023459910,24402,165993,145184
1631023459920,24403,165918,145134
1631023459930,24396,165823,145064
1631023459940,24398,165758,145015
1631023459950,24403,165682,144971
1631023459960,24403,165672,144971
1631023459970,24396,165627,144957
1631023459980,24389,165628,144963
1631023459990,24386,165580,144956
1631023460000,24376,165576,144962
1631023460010,24374,165591,144960
1631023460020,24365,165540,144976
1631023460030,24359,165562,144969
1631023460040,24353,165538,144953
1631023460050,24347,165532,144966
1631023460060,24342,165528,144935
1631023460070,24340,165533,144977
1631023460080,24347,165544,144977
1631023460090,24334,165526,144990
1631023460100,24334,165493,144966
1631023460110,24331,165502,144960
1631023460120,24328,165482,144928
1631023460130,24330,165443,144926
1631023460140,24321,165477,144942
1631023460150,24326,165505,144944
1631023460160,24330,165504,144971
1631023460170,24332,165509,144974
1631023460180,24334,165531,144964
1631023460190,24335,165508,144952
1631023460200,24331,165485,144935
1631023460210,24333,165463,144941
1631023460220,24329,165482,144924
1631023460230,24334,165448,144917
1631023460240,24342,165471,144915
1631023460250,24342,165463,144933
1631023460260,24346,165482,144909
1631023460270,24344,165446,144913
1631023460280,24344,165460,144902
1631023460290,24342,165430,144893
1631023460300,24343,165394,144876
1631023460310,24346,165429,144866
1631023460320,24344,165439,144880
1631023460330,24352,165422,144867
1631023460340,24355,165430,144883
1631023460350,24355,165421,144872
1631023460360,24361,165447,144868
1631023460370,24365,165400,144851
1631023460380,24360,165435,144867
1631023460390,24376,165471,144874
1631023460400,24367,165448,144880
1631023460410,24380,165455,144872
1631023460420,24379,165457,144863
1631023460430,24389,165481,144884
1631023460440,24392,165527,144874
1631023460450,24397,165509,144887
1631023460460,24399,165494,144887
1631023460470,24408,165527,144891
1631023460480,24414,165490,144867
1631023460490,24410,165487,144874
1631023460500,24422,165516,144867
1631023460510,24425,165520,144861
1631023460520,24427,165548,144866
1631023460530,24431,165552,144862
1631023460540,24436,165551,144868
1631023460550,24448,165580,144855
1631023460560,24447,165579,144872
1631023460570,24455,165583,144866
1631023460580,24460,165566,144851
1631023460590,24468,165600,144841
1631023460600,24474,165586,144844
1631023460610,24479,165585,144833
1631023460620,24478,165592,144829
1631023460630,24483,165577,144818
1631023460640,24489,165609,144801
1631023460650,24494,165609,144791
1631023460660,24501,165602,144809
1631023460670,24504,165622,144797
1631023460680,24512,165625,144789
1631023460690,24517,165627,144801
1631023460700,24524,165630,144795
1631023460710,24526,165655,144789
1631023460720,24543,165699,144783
1631023460730,24542,165675,144799
1631023460740,24547,165633,144726
1631023460750,24550,165548,144676
1631023460760,24545,165422,144600
1631023460770,24549,165344,144531
1631023460780,24543,165276,144505
1631023460790,24539,165247,144480
1631023460800,24534,165178,144471
1631023460810,24532,165185,144446
1631023460820,24514,165158,144447
1631023460830,24514,165123,144432
1631023460840,24499,165129,144439
1631023460850,24497,165142,144456
1631023460860,24501,165102,144436
1631023460870,24487,165119,144474
1631023460880,24477,165143,144489
1631023460890,24477,165170,144512
1631023460900,24480,165144,144524
1631023460910,24477,165167,144550
1631023460920,24477,165192,144548
1631023460930,24467,165159,144578
1631023460940,24468,165169,144560
1631023460950,24460,165152,144534
1631023460960,24455,165155,144552
1631023460970,24449,165113,144546
1631023460980,24448,165152,144561
1631023460990,24445,165161,144582
1631023461000,24440,165193,144591
1631023461010,24440,165217,144603
1631023461020,24434,165196,144612
1631023461030,24435,165159,144580
1631023461040,24433,165143,144544
1631023461050,24432,165138,144557
1631023461060,24423,165139,144536
1631023461070,24426,165105,144517
1631023461080,24424,165099,144516
1631023461090,24422,165094,144506
1631023461100,24422,165091,144484
1631023461110,24421,165103,144468
1631023461120,24422,165055,144468
1631023461130,24419,165063,144453
1631023461140,24415,165088,144439
1631023461150,24418,165049,144451
1631023461160,24417,165062,144446
1631023461170,24416,165050,144448
1631023461180,24418,165079,144439
1631023461190,24410,165055,144442
1631023461200,24421,165054,144431
1631023461210,24406,165068,144402
1631023461220,24420,165045,144423
1631023461230,24426,165049,144395
1631023461240,24420,165085,144404
1631023461250,24420,165048,144394
1631023461260,24425,165075,144393
1631023461270,24425,165074,144395
1631023461280,24431,165072,144383
1631023461290,24438,165079,144388
1631023461300,24437,165092,144383
1631023461310,24443,165102,144399
1631023461320,24445,165100,144389
1631023461330,24444,165105,144383
1631023461340,24449,165123,144390
1631023461350,24459,165131,144384
1631023461360,24456,165122,144379
1631023461370,24462,165105,144363
1631023461380,24468,165121,144359
1631023461390,24469,165146,144358
1631023461400,24471,165153,144378
1631023461410,24474,165146,144354
1631023461420,24480,165145,144332
1631023461430,24480,165148,144321
1631023461440,24482,165156,144323
1631023461450,24489,165131,144330
1631023461460,24493,165155,144314
1631023461470,24495,165166,144316
1631023461480,24495,165173,144311
1631023461490,24506,165180,144307
1631023461500,24509,165165,144306
1631023461510,24516,165212,144282
1631023461520,24515,165218,144304
1631023461530,24515,165235,144307
1631023461540,24516,165239,144297
1631023461550,24519,165258,144305
1631023461560,24537,165243,144311
1631023461570,24539,165227,144280
1631023461580,24546,165206,144245
1631023461590,24539,165112,144190
1631023461600,24541,164974,144101
1631023461610,24536,164898,144014
1631023461620,24538,164812,143977
1631023461630,24534,164738,143943
1631023461640,24526,164672,143880
1631023461650,24511,164644,143872
1631023461660,24497,164603,143857
1631023461670,24485,164577,143856
1631023461680,24484,164560,143868
1631023461690,24466,164537,143880
1631023461700,24457,164506,143862
1631023461710,24448,164494,143850
1631023461720,24440,164464,143836
1631023461730,24431,164472,143820
1631023461740,24414,164438,143807
1631023461750,24411,164404,143792
1631023461760,24399,164376,143775
1631023461770,24390,164320,143740
1631023461780,24380,164303,143735
1631023461790,24369,164296,143717
1631023461800,24360,164196,143674
1631023461810,24340,164113,143586
1631023461820,24326,164016,143509
1631023461830,24305,163890,143445
1631023461840,24294,163887,143436
1631023461850,24298,163906,143449
1631023461860,24272,163823,143371
1631023461870,24261,163659,143221
1631023461880,24243,163472,143080
1631023461890,24229,163386,143014
1631023461900,24229,163425,143056
1631023461910,24231,163432,143064
1631023461920,24232,163510,143138
1631023461930,24233,163548,143171
1631023461940,24231,163521,143142
1631023461950,24228,163487,143097
1631023461960,24222,163478,143139
1631023461970,24225,163524,143180
1631023461980,24220,163534,143160
1631023461990,24218,163532,143166
1631023462000,24223,163573,143218
1631023462010,24221,163628,143255
1631023462020,24226,163631,143284
1631023462030,24233,163659,143297
1631023462040,24233,163648,143307
1631023462050,24222,163642,143292
1631023462060,24230,163682,143322
1631023462070,24232,163743,143354
1631023462080,24234,163771,143400
1631023462090,24239,163814,143416
1631023462100,24245,163864,143470
1631023462110,24252,163878,143486
1631023462120,24253,163898,143497
1631023462130,24255,163934,143522
1631023462140,24267,163962,143528
1631023462150,24261,163992,143564
1631023462160,24265,164026,143602
1631023462170,24271,164049,143609
1631023462180,24275,164067,143634
1631023462190,24282,164107,143625
1631023462200,24277,164118,143677
1631023462210,24293,164198,143714
1631023462220,24294,164231,143758
1631023462230,24302,164256,143754
1631023462240,24301,164249,143773
1631023462250,24309,164309,143796
1631023462260,24311,164339,143833
1631023462270,24321,164335,143826
1631023462280,24319,164341,143846
1631023462290,24327,164394,143858
1631023462300,24328,164430,143872
1631023462310,24332,164471,143903
1631023462320,24347,164477,143924
1631023462330,24339,164495,143918
1631023462340,24348,164502,143922
1631023462350,24353,164545,143939
1631023462360,24356,164519,143907
1631023462370,24354,164541,143903
1631023462380,24359,164558,143936
1631023462390,24368,164608,143968
1631023462400,24372,164610,143968
1631023462410,24377,164610,143992
1631023462420,24381,164632,143990
1631023462430,24382,164672,144009
1631023462440,24397,164731,144039
1631023462450,24410,164766,144070
1631023462460,24409,164760,144059
1631023462470,24412,164704,144050
1631023462480,24416,164645,143958
1631023462490,24405,164522,143887
1631023462500,24397,164448,143858
1631023462510,24401,164395,143801
1631023462520,24379,164367,143799
1631023462530,24373,164322,143801
1631023462540,24364,164293,143799
1631023462550,24355,164272,143773
1631023462560,24342,164256,143774
1631023462570,24329,164232,143776
1631023462580,24316,164234,143773
1631023462590,24300,164223,143772
1631023462600,24291,164198,143765
1631023462610,24282,164170,143757
1631023462620,24270,164171,143778
1631023462630,24272,164176,143770
1631023462640,24257,164143,143767
1631023462650,24253,164160,143767
1631023462660,24243,164126,143748
1631023462670,24226,164081,143734
1631023462680,24227,164084,143729
1631023462690,24214,164073,143726
1631023462700,24204,164055,143710
1631023462710,24200,164061,143760
1631023462720,24195,164099,143763
1631023462730,24188,164123,143780
1631023462740,24182,164137,143793
1631023462750,24174,164126,143773
1631023462760,24173,164129,143796
1631023462770,24171,164122,143813
1631023462780,24168,164131,143809
1631023462790,24167,164141,143836
1631023462800,24165,164130,143854
1631023462810,24168,164180,143865
1631023462820,24169,164200,143892
1631023462830,24164,164200,143916
1631023462840,24166,164242,143934
1631023462850,24162,164228,143950
1631023462860,24158,164254,143947
1631023462870,24149,164252,143946
1631023462880,24152,164263,143961
1631023462890,24148,164272,144006
1631023462900,24150,164290,143995
1631023462910,24146,164327,144006
1631023462920,24149,164339,144025
1631023462930,24149,164345,144034
1631023462940,24152,164347,144049
1631023462950,24149,164350,144054
1631023462960,24153,164388,144067
1631023462970,24155,164420,144072
1631023462980,24159,164421,144080
1631023462990,24158,164430,144073
1631023463000,24160,164446,144111
1631023463010,24165,164463,144104
1631023463020,24165,164469,144138
1631023463030,24172,164500,144130
1631023463040,24171,164483,144146
1631023463050,24172,164521,144152
1631023463060,24180,164529,144149
1631023463070,24180,164545,144158
1631023463080,24184,164541,144162
1631023463090,24190,164553,144159
1631023463100,24190,164551,144189
1631023463110,24193,164577,144169
1631023463120,24203,164586,144181
1631023463130,24200,164608,144167
1631023463140,24200,164622,144177
1631023463150,24209,164620,144197
1631023463160,24221,164637,144188
1631023463170,24198,164632,144171
1631023463180,24217,164671,144182
1631023463190,24219,164636,144175
1631023463200,24226,164640,144165
1631023463210,24224,164657,144153
1631023463220,24231,164680,144188
1631023463230,24235,164665,144176
1631023463240,24240,164712,144167
1631023463250,24243,164708,144173
1631023463260,24251,164729,144194
1631023463270,24250,164769,144199
1631023463280,24257,164739,144208
1631023463290,24254,164770,144210
1631023463300,24265,164769,144189
1631023463310,24268,164708,144156
1631023463320,24266,164654,144083
1631023463330,24267,164545,144027
1631023463340,24264,164471,143951
1631023463350,24260,164404,143919
1631023463360,24252,164370,143944
1631023463370,24237,164348,143907
1631023463380,24228,164320,143925
1631023463390,24221,164304,143893
1631023463400,24207,164293,143890
1631023463410,24197,164264,143904
1631023463420,24185,164242,143901
1631023463430,24178,164251,143888
1631023463440,24173,164239,143887
1631023463450,24159,164232,143894
1631023463460,24159,164237,143898
1631023463470,24155,164239,143909
1631023463480,24141,164224,143903
1631023463490,24135,164212,143898
1631023463500,24135,164178,143886
1631023463510,24124,164156,143864
1631023463520,24120,164111,143866
1631023463530,24112,164106,143843
1631023463540,24109,164131,143863
1631023463550,24107,164173,143902
1631023463560,24108,164183,143917
1631023463570,24108,164169,143925
1631023463580,24103,164213,143934
1631023463590,24098,164189,143887
1631023463600,24104,164168,143906
1631023463610,24100,164193,143901
1631023463620,24099,164171,143897
1631023463630,24091,164150,143854
1631023463640,24098,164149,143876
1631023463650,24091,164154,143858
1631023463660,24094,164136,143865
1631023463670,24092,164159,143875
1631023463680,24088,164148,143877
1631023463690,24085,164162,143850
1631023463700,24084,164131,143853
1631023463710,24085,164145,143859
1631023463720,24083,164154,143868
1631023463730,24091,164192,143885
1631023463740,24093,164181,143897
1631023463750,24093,164202,143900
1631023463760,24099,164220,143889
1631023463770,24100,164233,143914
1631023463780,24105,164264,143934
1631023463790,24106,164266,143911
1631023463800,24120,164308,143951
1631023463810,24122,164303,143965
1631023463820,24121,164304,143992
1631023463830,24126,164348,144003
1631023463840,24130,164339,143989
1631023463850,24135,164388,144009
1631023463860,24139,164379,144030
1631023463870,24141,164411,144050
1631023463880,24148,164419,144034
1631023463890,24156,164445,144038
1631023463900,24158,164452,144043
1631023463910,24163,164477,144053
1631023463920,24171,164483,144066
1631023463930,24171,164495,144049
1631023463940,24177,164503,144044
1631023463950,24183,164501,144053
1631023463960,24191,164537,144038
1631023463970,24188,164541,144070
1631023463980,24199,164548,144081
1631023463990,24203,164575,144067
1631023464000,24206,164572,144074
1631023464010,24209,164591,144074
1631023464020,24213,164601,144058
1631023464030,24222,164583,144061
1631023464040,24227,164601,144059
1631023464050,24230,164592,144058
1631023464060,24239,164650,144072
1631023464070,24244,164630,144096
1631023464080,24255,164696,144103
1631023464090,24259,164704,144106
1631023464100,24268,164704,144109
1631023464110,24275,164729,144107
1631023464120,24271,164735,144131
1631023464130,24285,164771,144146
1631023464140,24291,164782,144141
1631023464150,24295,164771,144114
1631023464160,24297,164697,144064
1631023464170,24295,164580,143986
1631023464180,24289,164520,143942
1631023464190,24292,164458,143879
1631023464200,24287,164425,143871
1631023464210,24283,164389,143858
1631023464220,24273,164353,143838
1631023464230,24262,164325,143808
1631023464240,24253,164278,143832
1631023464250,24248,164270,143808
1631023464260,24230,164211,143822
1631023464270,24229,164257,143788
1631023464280,24222,164205,143793
1631023464290,24214,164222,143790
1631023464300,24210,164204,143789
1631023464310,24202,164220,143808
1631023464320,24196,164193,143811
1631023464330,24191,164181,143798
1631023464340,24179,164182,143804
1631023464350,24179,164165,143777
1631023464360,24173,164140,143774
1631023464370,24172,164142,143781
1631023464380,24162,164121,143782
1631023464390,24157,164138,143778
1631023464400,24153,164158,143801
1631023464410,24154,164139,143804
1631023464420,24151,164202,143825
1631023464430,24157,164196,143852
1631023464440,24148,164199,143818
1631023464450,24149,164184,143825
1631023464460,24155,164148,143795
1631023464470,24154,164158,143816
1631023464480,24149,164157,143814
1631023464490,24140,164145,143794
1631023464500,24147,164171,143778
1631023464510,24156,164177,143815
1631023464520,24152,164173,143805
1631023464530,24152,164152,143811
1631023464540,24146,164195,143802
1631023464550,24156,164150,143793
1631023464560,24148,164188,143804
1631023464570,24155,164184,143808
1631023464580,24153,164192,143838
1631023464590,24155,164220,143829
1631023464600,24161,164193,143828
1631023464610,24156,164213,143822
1631023464620,24162,164211,143856
1631023464630,24171,164243,143834
1631023464640,24163,164274,143848
1631023464650,24169,164257,143861
1631023464660,24176,164297,143858
1631023464670,24179,164290,143885
1631023464680,24186,164298,143874
1631023464690,24190,164343,143889
1631023464700,24189,164367,143900
1631023464710,24201,164368,143886
1631023464720,24204,164379,143915
1631023464730,24211,164394,143908
1631023464740,24215,164390,143904
1631023464750,24220,164403,143907
1631023464760,24232,164391,143926
1631023464770,24239,164464,143914
1631023464780,24234,164457,143930
1631023464790,24235,164467,143936
1631023464800,24235,164500,143929
1631023464810,24248,164471,143935
1631023464820,24248,164497,143917
1631023464830,24260,164505,143928
1631023464840,24258,164510,143920
1631023464850,24272,164511,143932
1631023464860,24276,164535,143943
1631023464870,24279,164551,143924
1631023464880,24285,164550,143920
1631023464890,24292,164572,143946
1631023464900,24293,164589,143943
1631023464910,24298,164583,143946
1631023464920,24312,164629,143962
1631023464930,24312,164657,143979
1631023464940,24322,164681,143983
1631023464950,24327,164687,143990
1631023464960,24338,164710,143992
1631023464970,24347,164738,144012
1631023464980,24355,164787,144042
1631023464990,24361,164810,144063
1631023465000,24367,164820,144051
1631023465010,24376,164848,144090
1631023465020,24380,164873,144095
1631023465030,24389,164920,144107
1631023465040,24394,164945,144097
1631023465050,24401,164921,144063
1631023465060,24398,164833,144013
1631023465070,24406,164701,143903
1631023465080,24401,164610,143833
1631023465090,24388,164507,143753
1631023465100,24394,164456,143712
1631023465110,24383,164395,143665
1631023465120,24370,164331,143669
1631023465130,24360,164312,143655
1631023465140,24347,164282,143632
1631023465150,24339,164255,143611
1631023465160,24331,164218,143605
1631023465170,24318,164226,143596
1631023465180,24316,164213,143609
1631023465190,24309,164200,143587
1631023465200,24307,164192,143594
1631023465210,24301,164196,143599
1631023465220,24297,164181,143582
1631023465230,24286,164153,143572
1631023465240,24280,164131,143554
1631023465250,24281,164090,143542
1631023465260,24272,164111,143558
1631023465270,24264,164099,143554
1631023465280,24260,164091,143525
1631023465290,24249,164071,143525
1631023465300,24253,164062,143534
1631023465310,24245,164076,143572
1631023465320,24244,164098,143572
1631023465330,24246,164122,143586
1631023465340,24249,164122,143578
1631023465350,24242,164100,143541
1631023465360,24237,164097,143540
1631023465370,24236,164083,143557
1631023465380,24240,164086,143533
1631023465390,24234,164090,143530
1631023465400,24234,164099,143545
1631023465410,24233,164096,143556
1631023465420,24236,164132,143557
1631023465430,24235,164115,143571
1631023465440,24227,164108,143526
1631023465450,24232,164087,143531
1631023465460,24231,164094,143545
1631023465470,24238,164116,143524
1631023465480,24234,164106,143539
1631023465490,24237,164093,143538
1631023465500,24235,164099,143536
1631023465510,24240,164111,143543
1631023465520,24243,164115,143549
1631023465530,24239,164121,143538
1631023465540,24241,164122,143548
1631023465550,24244,164168,143558
1631023465560,24250,164166,143558
1631023465570,24249,164164,143567
1631023465580,24262,164210,143564
1631023465590,24257,164171,143583
1631023465600,24266,164200,143606
1631023465610,24255,164235,143607
1631023465620,24267,164255,143611
1631023465630,24274,164277,143626
1631023465640,24282,164290,143640
1631023465650,24283,164313,143651
1631023465660,24291,164331,143659
1631023465670,24297,164333,143688
1631023465680,24306,164329,143693
1631023465690,24310,164374,143702
1631023465700,24313,164404,143731
1631023465710,24315,164386,143729
1631023465720,24323,164427,143744
1631023465730,24333,164445,143750
1631023465740,24341,164464,143773
1631023465750,24341,164482,143777
1631023465760,24359,164524,143799
1631023465770,24355,164511,143807
1631023465780,24361,164516,143823
1631023465790,24364,164521,143820
1631023465800,24369,164534,143820
1631023465810,24374,164549,143816
1631023465820,24384,164542,143825
1631023465830,24388,164518,143790
1631023465840,24388,164538,143812
1631023465850,24392,164535,143799
1631023465860,24396,164542,143797
1631023465870,24404,164530,143803
1631023465880,24406,164555,143794
1631023465890,24417,164604,143811
1631023465900,24422,164568,143797
1631023465910,24416,164611,143801
1631023465920,24426,164617,143808
1631023465930,24450,164641,143823
1631023465940,24443,164660,143849
1631023465950,24452,164684,143851
1631023465960,24460,164692,143854
1631023465970,24464,164681,143820
1631023465980,24466,164611,143780
1631023465990,24462,164503,143681
1631023466000,24453,164418,143624
1631023466010,24452,164337,143583
1631023466020,24450,164292,143572
1631023466030,24438,164250,143566
1631023466040,24431,164250,143544
1631023466050,24424,164219,143544
1631023466060,24414,164195,143560
1631023466070,24403,164215,143541
1631023466080,24393,164175,143509
1631023466090,24382,164153,143529
1631023466100,24380,164143,143511
1631023466110,24371,164122,143526
1631023466120,24361,164146,143534
1631023466130,24355,164152,143537
1631023466140,24348,164133,143554
1631023466150,24344,164118,143533
1631023466160,24345,164099,143505
1631023466170,24328,164108,143492
1631023466180,24327,164101,143498
1631023466190,24320,164054,143485
1631023466200,24310,164033,143479
1631023466210,24311,164066,143520
1631023466220,24314,164094,143524
1631023466230,24310,164136,143557
1631023466240,24305,164123,143570
1631023466250,24305,164123,143531
1631023466260,24307,164114,143549
1631023466270,24296,164091,143527
1631023466280,24298,164119,143531
1631023466290,24295,164084,143521
1631023466300,24288,164060,143489
1631023466310,24286,164095,143504
1631023466320,24290,164084,143495
1631023466330,24286,164076,143508
1631023466340,24280,164071,143507
1631023466350,24275,164045,143489
1631023466360,24271,164068,143467
1631023466370,24265,164033,143471
1631023466380,24273,164030,143470
1631023466390,24266,164048,143474
1631023466400,24267,164056,143471
1631023466410,24258,164023,143467
1631023466420,24269,164055,143473
1631023466430,24263,164048,143460
1631023466440,24270,164063,143474
1631023466450,24263,164054,143474
1631023466460,24265,164051,143471
1631023466470,24266,164101,143483
1631023466480,24264,164088,143473
1631023466490,24265,164108,143487
1631023466500,24269,164111,143485
1631023466510,24276,164131,143489
1631023466520,24277,164132,143507
1631023466530,24281,164112,143497
1631023466540,24286,164122,143503
1631023466550,24284,164108,143490
1631023466560,24289,164159,143486
1631023466570,24288,164148,143493
1631023466580,24285,164186,143504
1631023466590,24290,164195,143495
1631023466600,24290,164166,143476
1631023466610,24294,164183,143482
1631023466620,24295,164196,143479
1631023466630,24307,164182,143481
1631023466640,24302,164229,143482
1631023466650,24313,164210,143490
1631023466660,24310,164234,143488
1631023466670,24316,164244,143484
1631023466680,24322,164238,143471
1631023466690,24323,164268,143486
1631023466700,24317,164262,143494
1631023466710,24331,164277,143492
1631023466720,24325,164302,143498
1631023466730,24338,164308,143519
1631023466740,24340,164327,143504
1631023466750,24350,164337,143521
1631023466760,24352,164351,143528
1631023466770,24355,164356,143525
1631023466780,24360,164357,143546
1631023466790,24363,164416,143554
1631023466800,24375,164421,143564
1631023466810,24375,164451,143570
1631023466820,24375,164441,143582
1631023466830,24383,164399,143528
1631023466840,24381,164288,143436
1631023466850,24377,164190,143358
1631023466860,24372,164095,143297
1631023466870,24362,164090,143270
1631023466880,24352,164041,143243
1631023466890,24353,163982,143262
1631023466900,24333,163946,143235
1631023466910,24321,163935,143246
1631023466920,24303,163904,143230
1631023466930,24290,163892,143212
1631023466940,24279,163838,143203
1631023466950,24270,163826,143195
1631023466960,24257,163832,143192
1631023466970,24259,163799,143190
1631023466980,24247,163797,143205
1631023466990,24233,163802,143199
1631023467000,24226,163811,143195
1631023467010,24220,163798,143179
1631023467020,24204,163750,143187
1631023467030,24183,163751,143163
1631023467040,24188,163716,143151
1631023467050,24183,163702,143170
1631023467060,24172,163704,143145
1631023467070,24162,163696,143185
1631023467080,24160,163740,143199
1631023467090,24154,163753,143202
1631023467100,24153,163739,143208
1631023467110,24151,163746,143205
1631023467120,24141,163727,143196
1631023467130,24140,163729,143204
1631023467140,24136,163712,143172
1631023467150,24129,163704,143160
1631023467160,24123,163665,143164
1631023467170,24121,163690,143144
1631023467180,24119,163699,143161
1631023467190,24119,163654,143151
1631023467200,24118,163667,143156
1631023467210,24107,163656,143132
1631023467220,24105,163669,143116
1631023467230,24099,163641,143127
1631023467240,24098,163638,143137
1631023467250,24094,163666,143130
1631023467260,24095,163676,143124
1631023467270,24094,163657,143128
1631023467280,24094,163662,143147
1631023467290,24092,163648,143128
1631023467300,24091,163686,143139
1631023467310,24095,163700,143158
1631023467320,24091,163711,143154
1631023467330,24092,163707,143169
1631023467340,24093,163760,143177
1631023467350,24094,163758,143190
1631023467360,24105,163767,143175
1631023467370,24107,163786,143186
1631023467380,24111,163788,143197
1631023467390,24114,163831,143223
1631023467400,24108,163819,143209
1631023467410,24115,163849,143224
1631023467420,24113,163856,143228
1631023467430,24111,163843,143223
1631023467440,24116,163883,143214
1631023467450,24123,163894,143224
1631023467460,24122,163867,143222
1631023467470,24127,163889,143218
1631023467480,24129,163875,143224
1631023467490,24135,163888,143224
1631023467500,24141,163926,143243
1631023467510,24144,163923,143235
1631023467520,24153,163950,143249
1631023467530,24151,163941,143238
1631023467540,24157,163951,143238
1631023467550,24156,163973,143271
1631023467560,24161,163998,143267
1631023467570,24166,164002,143275
1631023467580,24162,164001,143263
1631023467590,24168,164028,143250
1631023467600,24179,164021,143251
1631023467610,24183,164037,143234
1631023467620,24187,164044,143252
1631023467630,24188,164051,143280
1631023467640,24196,164078,143268
1631023467650,24206,164108,143299
1631023467660,24211,164153,143306
1631023467670,24212,164148,143303
1631023467680,24222,164169,143329
1631023467690,24228,164198,143332
1631023467700,24228,164161,143289
1631023467710,24231,164076,143221
1631023467720,24220,163979,143128
1631023467730,24223,163873,143080
1631023467740,24210,163788,143047
1631023467750,24204,163767,143005
1631023467760,24192,163727,143001
1631023467770,24179,163660,142994
1631023467780,24164,163632,142965
1631023467790,24155,163630,142943
1631023467800,24135,163588,142945
1631023467810,24123,163544,142928
1631023467820,24115,163541,142915
1631023467830,24100,163516,142931
1631023467840,24079,163504,142933
1631023467850,24080,163508,142943
1631023467860,24083,163507,142956
1631023467870,24061,163503,142935
1631023467880,24061,163469,142935
1631023467890,24046,163459,142929
1631023467900,24045,163445,142912
1631023467910,24030,163448,142917
1631023467920,24024,163407,142908
1631023467930,24017,163391,142911
1631023467940,24008,163389,142892
1631023467950,23999,163389,142907
1631023467960,23997,163404,142924
1631023467970,24000,163431,142950
1631023467980,23985,163439,142946
1631023467990,23989,163426,142935
1631023468000,23993,163389,142907
1631023468010,23985,163383,142915
1631023468020,23988,163391,142915
1631023468030,23972,163390,142904
1631023468040,23970,163381,142906
1631023468050,23972,163362,142903
1631023468060,23966,163359,142915
1631023468070,23970,163393,142900
1631023468080,23972,163394,142933
1631023468090,23970,163364,142932
1631023468100,23963,163406,142931
1631023468110,23961,163403,142944
1631023468120,23969,163393,142936
1631023468130,23969,163435,142967
1631023468140,23967,163435,142975
1631023468150,23967,163439,142979
1631023468160,23967,163463,142998
1631023468170,23967,163477,142983
1631023468180,23973,163464,143000
1631023468190,23978,163512,143024
1631023468200,23979,163539,143040
1631023468210,23987,163540,143055
1631023468220,23996,163596,143063
1631023468230,23991,163584,143082
1631023468240,23997,163603,143103
1631023468250,24002,163634,143093
1631023468260,24010,163671,143138
1631023468270,24009,163679,143120
1631023468280,24014,163692,143148
1631023468290,24020,163685,143151
1631023468300,24026,163737,143151
1631023468310,24032,163748,143171
1631023468320,24038,163726,143178
1631023468330,24046,163755,143195
1631023468340,24045,163787,143190
1631023468350,24053,163792,143213
1631023468360,24059,163796,143185
1631023468370,24055,163817,143213
1631023468380,24064,163821,143214
1631023468390,24074,163871,143222
1631023468400,24076,163865,143230
1631023468410,24075,163891,143244
1631023468420,24089,163926,143254
1631023468430,24092,163904,143260
1631023468440,24100,163948,143275
1631023468450,24104,163981,143285
1631023468460,24110,163992,143299
1631023468470,24120,163989,143304
1631023468480,24120,164007,143305
1631023468490,24130,164012,143319
1631023468500,24134,164049,143325
1631023468510,24140,164048,143326
1631023468520,24142,164079,143324
1631023468530,24162,164108,143341
1631023468540,24162,164122,143360
1631023468550,24173,164157,143380
1631023468560,24174,164190,143401
1631023468570,24183,164217,143414
1631023468580,24196,164215,143407
1631023468590,24200,164264,143445
1631023468600,24202,164290,143420
1631023468610,24211,164254,143416
1631023468620,24217,164182,143349
1631023468630,24212,164076,143281
1631023468640,24208,163988,143202
1631023468650,24202,163897,143163
1631023468660,24205,163857,143137
1631023468670,24198,163808,143126
1631023468680,24181,163768,143137
1631023468690,24177,163775,143128
1631023468700,24161,163726,143116
1631023468710,24150,163725,143104
1631023468720,24142,163690,143098
1631023468730,24125,163689,143089
1631023468740,24119,163638,143098
1631023468750,24120,163629,143104
1631023468760,24109,163664,143111
1631023468770,24109,163656,143098
1631023468780,24100,163640,143122
1631023468790,24093,163653,143121
1631023468800,24089,163625,143107
1631023468810,24087,163594,143112
1631023468820,24079,163602,143113
1631023468830,24077,163592,143114
1631023468840,24073,163590,143091
1631023468850,24065,163570,143121
1631023468860,24065,163594,143117
1631023468870,24063,163609,143164
1631023468880,24059,163645,143170
1631023468890,24069,163650,143177
1631023468900,24064,163662,143170
1631023468910,24063,163674,143173
1631023468920,24065,163661,143178
1631023468930,24058,163606,143159
1631023468940,24064,163623,143153
1631023468950,24064,163635,143156
1631023468960,24059,163635,143174
1631023468970,24065,163665,143190
1631023468980,24063,163661,143180
1631023468990,24068,163624,143159
1631023469000,24057,163625,143176
1631023469010,24055,163654,143180
1631023469020,24062,163636,143171
1631023469030,24067,163654,143190
1631023469040,24066,163668,143204
1631023469050,24068,163668,143224
1631023469060,24069,163668,143216
1631023469070,24070,163691,143222
1631023469080,24076,163671,143226
1631023469090,24081,163706,143238
1631023469100,24084,163741,143260
1631023469110,24085,163749,143251
1631023469120,24087,163725,143262
1631023469130,24095,163755,143267
1631023469140,24091,163793,143283
1631023469150,24105,163817,143305
1631023469160,24109,163852,143313
1631023469170,24117,163850,143352
1631023469180,24123,163869,143362
1631023469190,24124,163906,143346
1631023469200,24128,163919,143359
1631023469210,24138,163922,143392
1631023469220,24138,163960,143391
1631023469230,24149,163989,143405
1631023469240,24144,163963,143408
1631023469250,24155,164007,143427
1631023469260,24158,164011,143423
1631023469270,24167,164007,143421
1631023469280,24173,164010,143413
1631023469290,24170,164009,143413
1631023469300,24173,164036,143417
1631023469310,24190,164047,143431
1631023469320,24189,164050,143424
1631023469330,24196,164063,143420
1631023469340,24195,164069,143414
1631023469350,24208,164054,143427
1631023469360,24206,164073,143425
1631023469370,24214,164079,143445
1631023469380,24225,164099,143438
1631023469390,24228,164115,143448
1631023469400,24234,164133,143455
1631023469410,24242,164141,143450
1631023469420,24244,164128,143452
1631023469430,24249,164150,143456
1631023469440,24257,164163,143472
1631023469450,24262,164143,143438
1631023469460,24266,164162,143433
1631023469470,24271,164155,143428
1631023469480,24269,164089,143377
1631023469490,24273,164009,143281
1631023469500,24278,163898,143227
1631023469510,24268,163827,143181
1631023469520,24267,163755,143127
1631023469530,24259,163708,143099
1631023469540,24250,163676,143082
1631023469550,24243,163623,143065
1631023469560,24241,163601,143048
1631023469570,24227,163571,143016
1631023469580,24219,163488,142981
1631023469590,24214,163463,142987
1631023469600,24210,163446,142929
1631023469610,24196,163400,142915
1631023469620,24197,163399,142927
1631023469630,24195,163370,142897
1631023469640,24193,163355,142890
1631023469650,24179,163335,142883
1631023469660,24186,163273,142848
1631023469670,24176,163276,142811
1631023469680,24175,163240,142817
1631023469690,24173,163264,142792
1631023469700,24173,163210,142788
1631023469710,24175,163232,142789
1631023469720,24176,163260,142827
1631023469730,24174,163283,142860
1631023469740,24178,163260,142825
1631023469750,24175,163251,142816
1631023469760,24176,163231,142789
1631023469770,24181,163220,142817
1631023469780,24174,163219,142805
1631023469790,24183,163220,142792
1631023469800,24176,163218,142785
1631023469810,24190,163215,142794
1631023469820,24189,163213,142772
1631023469830,24179,163203,142815
1631023469840,24184,163225,142783
1631023469850,24181,163229,142789
1631023469860,24186,163226,142789
1631023469870,24185,163226,142782
1631023469880,24186,163231,142809
1631023469890,24185,163258,142814
1631023469900,24185,163257,142811
1631023469910,24192,163271,142824
1631023469920,24191,163277,142822
1631023469930,24193,163307,142832
1631023469940,24197,163328,142864
1631023469950,24196,163348,142867
1631023469960,24201,163360,142891
1631023469970,24206,163379,142891
1631023469980,24220,163389,142906
1631023469990,24216,163414,142917
1631023470000,24222,163447,142936
1631023470010,24225,163458,142965
1631023470020,24231,163467,142968
1631023470030,24245,163489,142981
1631023470040,24232,163519,142981
1631023470050,24243,163538,142988
1631023470060,24248,163545,143018
1631023470070,24254,163580,143013
1631023470080,24253,163596,143024
1631023470090,24266,163617,143031
1631023470100,24268,163628,143030
1631023470110,24272,163631,143035
1631023470120,24274,163647,143050
1631023470130,24286,163676,143049
1631023470140,24286,163655,143056
1631023470150,24294,163677,143057
1631023470160,24297,163708,143043
1631023470170,24298,163715,143061
1631023470180,24306,163707,143053
1631023470190,24317,163737,143037
1631023470200,24323,163737,143057
1631023470210,24326,163768,143064
1631023470220,24334,163743,143074
1631023470230,24334,163755,143073
1631023470240,24346,163799,143081
1631023470250,24354,163812,143091
1631023470260,24361,163840,143087
1631023470270,24364,163847,143101
1631023470280,24362,163864,143086
1631023470290,24374,163913,143136
1631023470300,24393,163910,143114
1631023470310,24384,163849,143104
1631023470320,24390,163803,143018
1631023470330,24386,163711,142941
1631023470340,24385,163605,142879
1631023470350,24377,163534,142851
1631023470360,24377,163486,142826
1631023470370,24362,163432,142797
1631023470380,24351,163387,142780
1631023470390,24342,163382,142778
1631023470400,24341,163373,142756
1631023470410,24322,163344,142750
1631023470420,24312,163329,142738
1631023470430,24311,163308,142735
1631023470440,24290,163282,142725
1631023470450,24290,163274,142740
1631023470460,24285,163269,142727
1631023470470,24278,163281,142767
1631023470480,24278,163275,142765
1631023470490,24261,163241,142749
1631023470500,24258,163243,142752
1631023470510,24257,163223,142740
1631023470520,24247,163189,142720
1631023470530,24243,163177,142733
1631023470540,24238,163173,142719
1631023470550,24230,163187,142726
1631023470560,24223,163171,142732
1631023470570,24220,163206,142759
1631023470580,24215,163243,142764
1631023470590,24215,163228,142770
1631023470600,24211,163257,142758
1631023470610,24215,163223,142766
1631023470620,24214,163244,142761
1631023470630,24206,163227,142747
1631023470640,24205,163216,142742
1631023470650,24207,163201,142755
1631023470660,24200,163198,142759
1631023470670,24196,163215,142744
1631023470680,24199,163207,142763
1631023470690,24202,163215,142749
1631023470700,24203,163233,142753
1631023470710,24199,163246,142755
1631023470720,24198,163243,142791
1631023470730,24201,163245,142766
1631023470740,24196,163267,142775
1631023470750,24201,163278,142782
1631023470760,24202,163268,142802
1631023470770,24204,163250,142796
1631023470780,24204,163290,142774
1631023470790,24200,163290,142799
1631023470800,24202,163324,142804
1631023470810,24201,163331,142821
1631023470820,24209,163347,142820
1631023470830,24213,163360,142848
1631023470840,24215,163386,142839
1631023470850,24216,163391,142850
1631023470860,24226,163419,142870
1631023470870,24224,163442,142882
1631023470880,24227,163432,142898
1631023470890,24237,163498,142903
1631023470900,24237,163494,142910
1631023470910,24239,163504,142942
1631023470920,24248,163518,142958
1631023470930,24255,163536,142953
1631023470940,24257,163556,142946
1631023470950,24255,163565,142958
1631023470960,24261,163570,142980
1631023470970,24266,163603,142947
1631023470980,24271,163614,142975
1631023470990,24273,163661,142984
1631023471000,24279,163647,142998
1631023471010,24287,163650,142988
1631023471020,24285,163659,142990
1631023471030,24295,163700,143028
1631023471040,24303,163710,143029
1631023471050,24301,163723,143047
1631023471060,24307,163740,143021
1631023471070,24314,163773,143049
1631023471080,24318,163774,143057
1631023471090,24330,163790,143067
1631023471100,24327,163801,143061
1631023471110,24334,163826,143071
1631023471120,24338,163830,143079
1631023471130,24346,163864,143099
1631023471140,24350,163894,143116
1631023471150,24361,163918,143106
1631023471160,24365,163926,143118
1631023471170,24372,163969,143162
1631023471180,24374,163956,143160
1631023471190,24379,163956,143150
1631023471200,24386,163926,143101
1631023471210,24386,163825,143027
1631023471220,24384,163733,142969
1631023471230,24376,163642,142920
1631023471240,24363,163591,142886
1631023471250,24362,163568,142852
1631023471260,24346,163493,142864
1631023471270,24342,163486,142841
1631023471280,24331,163447,142860
1631023471290,24317,163449,142842
1631023471300,24306,163432,142843
1631023471310,24290,163409,142815
1631023471320,24281,163388,142804
1631023471330,24269,163358,142823
1631023471340,24270,163369,142821
1631023471350,24262,163362,142830
1631023471360,24246,163350,142831
1631023471370,24246,163348,142813
1631023471380,24231,163317,142828
1631023471390,24235,163324,142824
1631023471400,24216,163308,142800
1631023471410,24208,163292,142802
1631023471420,24197,163249,142788
1631023471430,24193,163248,142793
1631023471440,24187,163234,142791
1631023471450,24188,163284,142824
1631023471460,24174,163290,142842
1631023471470,24174,163305,142866
1631023471480,24172,163324,142879
1631023471490,24169,163314,142859
1631023471500,24165,163314,142832
1631023471510,24162,163273,142845
1631023471520,24157,163258,142826
1631023471530,24151,163286,142833
1631023471540,24147,163265,142831
1631023471550,24150,163254,142827
1631023471560,24145,163281,142837
1631023471570,24140,163270,142851
1631023471580,24140,163295,142854
1631023471590,24138,163285,142848
1631023471600,24135,163281,142844
1631023471610,24140,163280,142849
1631023471620,24134,163298,142858
1631023471630,24141,163293,142854
1631023471640,24135,163297,142890
1631023471650,24137,163310,142878
1631023471660,24134,163335,142885
1631023471670,24131,163353,142889
1631023471680,24136,163324,142911
1631023471690,24137,163376,142923
1631023471700,24133,163386,142948
1631023471710,24139,163397,142955
1631023471720,24146,163396,142935
1631023471730,24146,163421,142958
1631023471740,24145,163447,142972
1631023471750,24155,163466,142970
1631023471760,24157,163470,142991
1631023471770,24154,163506,142989
1631023471780,24160,163498,143025
1631023471790,24166,163525,143001
1631023471800,24166,163507,143031
1631023471810,24173,163562,143012
1631023471820,24166,163546,143035
1631023471830,24175,163568,143014
1631023471840,24179,163554,143048
1631023471850,24182,163594,143051
1631023471860,24186,163594,143056
1631023471870,24185,163609,143061
1631023471880,24186,163649,143072
1631023471890,24192,163644,143064
1631023471900,24191,163663,143075
1631023471910,24201,163648,143085
1631023471920,24212,163704,143105
1631023471930,24208,163698,143099
1631023471940,24215,163691,143081
1631023471950,24214,163707,143108
1631023471960,24216,163738,143096
1631023471970,24221,163709,143092
1631023471980,24228,163728,143115
1631023471990,24235,163747,143107
1631023472000,24237,163777,143109
1631023472010,24245,163796,143125
1631023472020,24247,163789,143131
1631023472030,24242,163827,143144
1631023472040,24254,163831,143155
1631023472050,24265,163838,143147
1631023472060,24267,163851,143148
1631023472070,24272,163795,143088
1631023472080,24272,163716,143024
1631023472090,24265,163603,142938
1631023472100,24257,163520,142903
1631023472110,24252,163480,142874
1631023472120,24245,163454,142870
1631023472130,24236,163428,142868
1631023472140,24228,163388,142865
1631023472150,24210,163392,142873
1631023472160,24202,163353,142841
1631023472170,24187,163350,142862
1631023472180,24184,163327,142840
1631023472190,24169,163330,142839
1631023472200,24160,163303,142844
1631023472210,24159,163273,142836
1631023472220,24147,163295,142863
1631023472230,24145,163313,142859
1631023472240,24133,163276,142844
1631023472250,24131,163259,142847
1631023472260,24123,163263,142834
1631023472270,24118,163235,142795
1631023472280,24108,163236,142787
1631023472290,24105,163205,142797
1631023472300,24094,163228,142818
1631023472310,24099,163249,142844
1631023472320,24093,163288,142852
1631023472330,24090,163276,142872
1631023472340,24091,163257,142852
1631023472350,24090,163282,142848
1631023472360,24082,163260,142846
1631023472370,24084,163249,142822
1631023472380,24090,163230,142841
1631023472390,24086,163244,142834
1631023472400,24084,163210,142828
1631023472410,24087,163206,142814
1631023472420,24082,163232,142830
1631023472430,24073,163237,142819
1631023472440,24072,163210,142830
1631023472450,24075,163196,142813
1631023472460,24073,163202,142799
1631023472470,24073,163229,142820
1631023472480,24076,163236,142833
1631023472490,24074,163251,142835
1631023472500,24070,163203,142827
1631023472510,24079,163242,142826
1631023472520,24082,163286,142838
1631023472530,24080,163271,142831
1631023472540,24089,163304,142850
1631023472550,24090,163274,142868
1631023472560,24089,163287,142877
1631023472570,24086,163322,142881
1631023472580,24096,163333,142890
1631023472590,24098,163353,142878
1631023472600,24108,163360,142897
1631023472610,24108,163367,142914
1631023472620,24116,163398,142890
1631023472630,24114,163393,142905
1631023472640,24120,163388,142911
1631023472650,24123,163415,142926
1631023472660,24127,163406,142920
1631023472670,24133,163425,142919
1631023472680,24139,163410,142886
1631023472690,24142,163426,142923
1631023472700,24147,163429,142899
1631023472710,24149,163441,142899
1631023472720,24151,163424,142907
1631023472730,24155,163452,142899
1631023472740,24161,163463,142887
1631023472750,24167,163470,142919
1631023472760,24170,163459,142906
1631023472770,24176,163495,142926
1631023472780,24179,163484,142903
1631023472790,24182,163491,142897
1631023472800,24185,163503,142894
1631023472810,24187,163496,142897
1631023472820,24198,163520,142901
1631023472830,24207,163553,142893
1631023472840,24207,163568,142917
1631023472850,24208,163578,142931
1631023472860,24213,163592,142944
1631023472870,24229,163602,142963
1631023472880,24230,163597,142955
1631023472890,24240,163677,142967
1631023472900,24232,163675,142960
1631023472910,24250,163621,142920
1631023472920,24239,163525,142857
1631023472930,24238,163442,142756
1631023472940,24229,163341,142714
1631023472950,24227,163281,142671
1631023472960,24224,163244,142641
1631023472970,24212,163190,142633
1631023472980,24206,163150,142613
1631023472990,24188,163119,142595
1631023473000,24182,163119,142601
1631023473010,24170,163087,142592
1631023473020,24164,163055,142591
1631023473030,24161,163048,142572
1631023473040,24139,163021,142567
1631023473050,24144,163022,142566
1631023473060,24131,163017,142576
1631023473070,24121,163017,142578
1631023473080,24118,162993,142570
1631023473090,24114,162976,142557
1631023473100,24102,162933,142549
1631023473110,24097,162938,142545
1631023473120,24091,162904,142549
1631023473130,24085,162929,142515
1631023473140,24074,162905,142513
1631023473150,24069,162900,142522
1631023473160,24073,162887,142540
1631023473170,24063,162924,142571
1631023473180,24065,162916,142579
1631023473190,24060,162949,142572
1631023473200,24054,162930,142559
1631023473210,24059,162912,142543
1631023473220,24061,162931,142546
1631023473230,24067,162895,142545
1631023473240,24057,162892,142494
1631023473250,24055,162882,142516
1631023473260,24054,162861,142493
1631023473270,24055,162872,142492
1631023473280,24052,162879,142500
1631023473290,24055,162853,142501
1631023473300,24048,162882,142480
1631023473310,24049,162869,142476
1631023473320,24047,162841,142484
1631023473330,24047,162887,142475
1631023473340,24048,162867,142492
1631023473350,24050,162854,142455
1631023473360,24042,162842,142470
1631023473370,24047,162856,142458
1631023473380,24050,162848,142452
1631023473390,24053,162858,142453
1631023473400,24057,162896,142472
1631023473410,24058,162897,142475
1631023473420,24064,162938,142489
1631023473430,24073,162932,142482
1631023473440,24073,162941,142529
1631023473450,24079,162946,142508
1631023473460,24078,162962,142513
1631023473470,24087,162988,142521
1631023473480,24089,162997,142503
1631023473490,24092,163020,142506
1631023473500,24101,162985,142526
1631023473510,24104,163031,142531
1631023473520,24106,163026,142525
1631023473530,24102,163038,142499
1631023473540,24115,163030,142515
1631023473550,24113,163060,142495
1631023473560,24123,163046,142492
1631023473570,24127,163065,142503
1631023473580,24127,163076,142537
1631023473590,24137,163104,142524
1631023473600,24139,163117,142529
1631023473610,24145,163126,142528
1631023473620,24153,163136,142526
1631023473630,24153,163150,142542
1631023473640,24159,163169,142544
1631023473650,24170,163199,142551
1631023473660,24170,163197,142569
1631023473670,24178,163217,142584
1631023473680,24182,163239,142568
1631023473690,24196,163278,142576
1631023473700,24196,163232,142566
1631023473710,24206,163276,142592
1631023473720,24203,163294,142588
1631023473730,24212,163311,142581
1631023473740,24218,163340,142606
1631023473750,24224,163368,142622
1631023473760,24235,163389,142617
1631023473770,24239,163400,142641
1631023473780,24243,163414,142649
1631023473790,24258,163449,142673
1631023473800,24258,163447,142672
1631023473810,24267,163469,142679
1631023473820,24273,163467,142657
1631023473830,24275,163417,142616
1631023473840,24269,163308,142508
1631023473850,24275,163213,142466
1631023473860,24259,163140,142414
1631023473870,24254,163085,142393
1631023473880,24246,163071,142362
1631023473890,24241,162986,142334
1631023473900,24228,162972,142323
1631023473910,24220,162940,142317
1631023473920,24207,162890,142290
1631023473930,24206,162884,142306
1631023473940,24192,162865,142275
1631023473950,24185,162848,142286
1631023473960,24175,162847,142259
1631023473970,24174,162858,142275
1631023473980,24164,162858,142308
1631023473990,24165,162854,142314
1631023474000,24151,162816,142304
1631023474010,24154,162820,142291
1631023474020,24144,162802,142297
1631023474030,24135,162779,142296
1631023474040,24137,162782,142299
1631023474050,24123,162779,142290
1631023474060,24120,162793,142288
1631023474070,24116,162766,142312
1631023474080,24113,162794,142324
1631023474090,24114,162848,142357
1631023474100,24119,162840,142379
1631023474110,24123,162848,142388
1631023474120,24116,162845,142368
1631023474130,24113,162830,142367
1631023474140,24114,162840,142357
1631023474150,24109,162851,142355
1631023474160,24107,162811,142351
1631023474170,24116,162835,142363
1631023474180,24109,162820,142353
1631023474190,24117,162837,142345
1631023474200,24104,162827,142393
1631023474210,24113,162824,142376
1631023474220,24115,162822,142380
1631023474230,24113,162850,142364
1631023474240,24115,162843,142398
1631023474250,24119,162880,142410
1631023474260,24117,162837,142384
1631023474270,24117,162875,142402
1631023474280,24122,162856,142382
1631023474290,24123,162845,142399
1631023474300,24131,162871,142387
1631023474310,24134,162862,142390
1631023474320,24142,162871,142406
1631023474330,24144,162881,142421
1631023474340,24143,162906,142431
1631023474350,24149,162929,142455
1631023474360,24159,162952,142431
1631023474370,24161,162940,142456
1631023474380,24168,162979,142467
1631023474390,24174,162969,142476
1631023474400,24175,163002,142476
1631023474410,24193,163045,142494
1631023474420,24185,163022,142485
1631023474430,24181,163028,142496
1631023474440,24195,163030,142491
1631023474450,24201,163049,142495
1631023474460,24202,163051,142522
1631023474470,24207,163102,142524
1631023474480,24216,163070,142524
1631023474490,24219,163082,142521
1631023474500,24216,163109,142520
1631023474510,24241,163095,142543
1631023474520,24239,163115,142538
1631023474530,24252,163113,142533
1631023474540,24246,163136,142545
1631023474550,24252,163161,142533
1631023474560,24259,163166,142561
1631023474570,24271,163185,142564
1631023474580,24272,163182,142581
1631023474590,24276,163255,142578
1631023474600,24276,163246,142598
1631023474610,24286,163246,142598
1631023474620,24292,163269,142597
1631023474630,24301,163269,142598
1631023474640,24305,163286,142605
1631023474650,24316,163325,142624
1631023474660,24321,163319,142648
1631023474670,24322,163343,142654
1631023474680,24343,163338,142649
1631023474690,24338,163375,142658
1631023474700,24347,163419,142697
1631023474710,24357,163465,142731
1631023474720,24360,163461,142734
1631023474730,24368,163478,142730
1631023474740,24370,163461,142684
1631023474750,24374,163384,142639
1631023474760,24369,163292,142550
1631023474770,24372,163191,142501
1631023474780,24365,163138,142483
1631023474790,24368,163100,142463
1631023474800,24363,163089,142447
1631023474810,24356,163080,142441
1631023474820,24347,163042,142427
1631023474830,24332,163022,142431
1631023474840,24335,163006,142437
1631023474850,24319,163005,142406
1631023474860,24317,162974,142433
1631023474870,24309,162992,142429
1631023474880,24309,162962,142426
1631023474890,24309,162974,142450
1631023474900,24306,162959,142438
1631023474910,24298,162946,142437
1631023474920,24295,162937,142428
1631023474930,24288,162940,142425
1631023474940,24285,162915,142412
1631023474950,24285,162883,142412
1631023474960,24277,162889,142393
1631023474970,24282,162882,142414
1631023474980,24275,162877,142419
1631023474990,24275,162925,142436
1631023475000,24276,162937,142456
1631023475010,24277,162969,142471
1631023475020,24271,162940,142448
1631023475030,24270,162957,142430
1631023475040,24266,162917,142439
1631023475050,24270,162908,142421
1631023475060,24270,162924,142415
1631023475070,24263,162881,142420
1631023475080,24269,162900,142401
1631023475090,24269,162886,142413
1631023475100,24273,162894,142399
1631023475110,24267,162890,142428
1631023475120,24267,162876,142402
1631023475130,24270,162866,142404
1631023475140,24259,162874,142410
1631023475150,24264,162860,142384
1631023475160,24261,162874,142389
1631023475170,24269,162880,142399
1631023475180,24265,162883,142411
1631023475190,24267,162900,142418
1631023475200,24266,162903,142406
1631023475210,24270,162922,142409
1631023475220,24279,162896,142419
1631023475230,24274,162939,142435
1631023475240,24278,162939,142425
1631023475250,24282,162948,142426
1631023475260,24287,162987,142445
1631023475270,24291,162988,142436
1631023475280,24290,162995,142449
1631023475290,24298,163008,142459
1631023475300,24304,163034,142470
1631023475310,24310,163041,142467
1631023475320,24298,163050,142462
1631023475330,24306,163040,142470
1631023475340,24324,163058,142468
1631023475350,24321,163049,142478
1631023475360,24325,163077,142469
1631023475370,24327,163091,142474
1631023475380,24336,163074,142465
1631023475390,24337,163102,142472
1631023475400,24342,163119,142474
1631023475410,24351,163107,142461
1631023475420,24356,163117,142473
1631023475430,24363,163122,142488
1631023475440,24363,163174,142475
1631023475450,24365,163157,142497
1631023475460,24370,163169,142487
1631023475470,24376,163195,142483
1631023475480,24385,163216,142484
1631023475490,24383,163221,142509
1631023475500,24383,163204,142508
1631023475510,24392,163212,142489
1631023475520,24402,163234,142515
1631023475530,24405,163270,142514
1631023475540,24406,163287,142521
1631023475550,24410,163276,142523
1631023475560,24423,163317,142532
1631023475570,24424,163329,142541
1631023475580,24432,163344,142569
1631023475590,24439,163344,142569
1631023475600,24442,163396,142563
1631023475610,24449,163390,142561
1631023475620,24450,163316,142502
1631023475630,24437,163232,142412
1631023475640,24448,163104,142333
1631023475650,24440,163037,142280
1631023475660,24444,163016,142277
1631023475670,24444,162991,142256
1631023475680,24429,162936,142233
1631023475690,24415,162902,142231
1631023475700,24407,162884,142230
1631023475710,24398,162867,142225
1631023475720,24391,162833,142209
1631023475730,24378,162847,142203
1631023475740,24372,162831,142180
1631023475750,24361,162788,142199
1631023475760,24355,162795,142170
1631023475770,24347,162770,142178
1631023475780,24347,162780,142195
1631023475790,24338,162754,142180
1631023475800,24327,162744,142171
1631023475810,24325,162713,142169
1631023475820,24318,162724,142159
1631023475830,24311,162690,142157
1631023475840,24303,162696,142148
1631023475850,24292,162670,142152
1631023475860,24294,162681,142142
1631023475870,24292,162715,142177
1631023475880,24288,162705,142192
1631023475890,24289,162753,142201
1631023475900,24285,162742,142185
1631023475910,24280,162730,142188
1631023475920,24283,162700,142175
1631023475930,24279,162717,142173
1631023475940,24278,162700,142144
1631023475950,24270,162699,142155
1631023475960,24267,162709,142154
1631023475970,24276,162724,142150
1631023475980,24276,162709,142172
1631023475990,24274,162685,142154
1631023476000,24267,162716,142163
1631023476010,24268,162698,142157
1631023476020,24265,162723,142155
1631023476030,24269,162701,142169
1631023476040,24268,162735,142168
1631023476050,24263,162712,142190
1631023476060,24263,162717,142145
1631023476070,24266,162752,142156
1631023476080,24265,162748,142166
1631023476090,24266,162759,142156
1631023476100,24272,162747,142178
1631023476110,24278,162762,142202
1631023476120,24264,162796,142215
1631023476130,24279,162788,142205
1631023476140,24279,162817,142210
1631023476150,24287,162831,142238
1631023476160,24283,162873,142251
1631023476170,24286,162885,142252
1631023476180,24290,162881,142243
1631023476190,24292,162877,142248
1631023476200,24301,162886,142280
1631023476210,24298,162920,142267
1631023476220,24305,162922,142278
1631023476230,24308,162936,142292
1631023476240,24309,162957,142287
1631023476250,24310,162986,142286
1631023476260,24320,162946,142284
1631023476270,24326,162976,142302
1631023476280,24331,163005,142313
1631023476290,24336,163010,142325
1631023476300,24341,163045,142349
1631023476310,24342,163074,142340
1631023476320,24350,163079,142345
1631023476330,24353,163081,142365
1631023476340,24354,163104,142373
1631023476350,24362,163126,142397
1631023476360,24371,163161,142406
1631023476370,24374,163156,142389
1631023476380,24380,163180,142398
1631023476390,24389,163197,142411
1631023476400,24392,163194,142413
1631023476410,24394,163210,142405
1631023476420,24397,163203,142411
1631023476430,24408,163207,142407
1631023476440,24411,163223,142401
1631023476450,24412,163235,142408
1631023476460,24422,163250,142422
1631023476470,24433,163256,142421
1631023476480,24426,163302,142441
1631023476490,24435,163308,142441
1631023476500,24435,163333,142436
1631023476510,24448,163342,142459
1631023476520,24444,163367,142478
1631023476530,24457,163377,142480
1631023476540,24462,163348,142439
1631023476550,24457,163256,142358
1631023476560,24458,163178,142303
1631023476570,24451,163096,142236
1631023476580,24440,163031,142212
1631023476590,24437,162979,142175
1631023476600,24427,162927,142141
1631023476610,24418,162891,142111
1631023476620,24399,162862,142111
1631023476630,24393,162818,142102
1631023476640,24382,162812,142081
1631023476650,24364,162787,142091
1631023476660,24358,162749,142066
1631023476670,24350,162765,142067
1631023476680,24335,162750,142076
1631023476690,24330,162739,142098
1631023476700,24323,162755,142095
1631023476710,24320,162761,142094
1631023476720,24309,162732,142093
1631023476730,24299,162702,142070
1631023476740,24293,162710,142066
1631023476750,24283,162676,142076
1631023476760,24276,162691,142065
1631023476770,24269,162670,142071
1631023476780,24264,162647,142039
1631023476790,24254,162681,142068
1631023476800,24247,162719,142107
1631023476810,24246,162719,142124
1631023476820,24241,162724,142108
1631023476830,24241,162718,142106
1631023476840,24238,162709,142082
1631023476850,24233,162714,142103
1631023476860,24228,162716,142092
1631023476870,24224,162683,142080
1631023476880,24222,162700,142091
1631023476890,24217,162687,142081
1631023476900,24214,162672,142095
1631023476910,24216,162692,142102
1631023476920,24211,162699,142105
1631023476930,24219,162689,142100
1631023476940,24206,162720,142100
1631023476950,24208,162679,142122
1631023476960,24214,162718,142097
1631023476970,24210,162739,142132
1631023476980,24211,162745,142138
1631023476990,24205,162765,142136
1631023477000,24209,162729,142127
1631023477010,24206,162777,142134
1631023477020,24206,162787,142138
1631023477030,24210,162763,142155
1631023477040,24214,162811,142178
1631023477050,24214,162815,142198
1631023477060,24218,162849,142214
1631023477070,24227,162868,142207
1631023477080,24221,162863,142215
1631023477090,24231,162895,142229
1631023477100,24219,162926,142258
1631023477110,24231,162905,142258
1631023477120,24237,162938,142274
1631023477130,24246,162975,142269
1631023477140,24250,162990,142297
1631023477150,24248,162981,142284
1631023477160,24252,163010,142284
1631023477170,24255,163043,142302
1631023477180,24260,163022,142305
1631023477190,24267,163042,142310
1631023477200,24260,163039,142299
1631023477210,24269,163041,142295
1631023477220,24275,163088,142308
1631023477230,24281,163079,142295
1631023477240,24280,163079,142317
1631023477250,24280,163089,142322
1631023477260,24293,163096,142344
1631023477270,24295,163150,142347
1631023477280,24305,163172,142346
1631023477290,24305,163177,142354
1631023477300,24309,163172,142366
1631023477310,24314,163221,142368
1631023477320,24320,163215,142382
1631023477330,24322,163219,142383
1631023477340,24333,163248,142386
1631023477350,24336,163258,142389
1631023477360,24344,163269,142393
1631023477370,24344,163283,142405
1631023477380,24351,163292,142409
1631023477390,24358,163319,142431
1631023477400,24363,163336,142412
1631023477410,24362,163351,142444
1631023477420,24368,163374,142449
1631023477430,24378,163391,142445
1631023477440,24389,163395,142455
1631023477450,24391,163452,142489
1631023477460,24398,163475,142497
1631023477470,24401,163463,142483
1631023477480,24405,163414,142442
1631023477490,24403,163326,142367
1631023477500,24400,163233,142295
1631023477510,24400,163145,142243
1631023477520,24392,163096,142222
1631023477530,24384,163030,142205
1631023477540,24373,163027,142205
1631023477550,24359,162993,142193
1631023477560,24344,162988,142197
1631023477570,24345,162938,142202
1631023477580,24332,162942,142182
1631023477590,24317,162933,142182
1631023477600,24300,162884,142158
1631023477610,24295,162880,142187
1631023477620,24288,162900,142172
1631023477630,24282,162910,142196
1631023477640,24272,162913,142212
1631023477650,24273,162894,142197
1631023477660,24259,162869,142195
1631023477670,24256,162875,142189
1631023477680,24246,162849,142173
1631023477690,24237,162837,142165
1631023477700,24234,162798,142152
1631023477710,24222,162774,142152
1631023477720,24218,162775,142170
1631023477730,24217,162826,142185
1631023477740,24207,162836,142217
1631023477750,24222,162858,142234
1631023477760,24208,162891,142244
1631023477770,24207,162856,142225
1631023477780,24214,162858,142206
1631023477790,24210,162853,142228
1631023477800,24201,162838,142206
1631023477810,24201,162835,142221
1631023477820,24203,162834,142208
1631023477830,24198,162823,142222
1631023477840,24201,162844,142220
1631023477850,24198,162831,142231
1631023477860,24192,162825,142229
1631023477870,24188,162864,142232
1631023477880,24188,162834,142219
1631023477890,24185,162832,142240
1631023477900,24190,162853,142239
1631023477910,24191,162871,142255
1631023477920,24185,162880,142256
1631023477930,24185,162871,142260
1631023477940,24194,162869,142257
1631023477950,24190,162891,142268
1631023477960,24196,162911,142278
1631023477970,24192,162935,142305
1631023477980,24199,162934,142294
1631023477990,24203,162953,142309
1631023478000,24202,162953,142295
1631023478010,24208,162984,142306
1631023478020,24219,162981,142345
1631023478030,24212,163002,142332
1631023478040,24224,163000,142333
1631023478050,24225,163007,142347
1631023478060,24230,163012,142353
1631023478070,24237,163032,142348
1631023478080,24231,163051,142339
1631023478090,24234,163064,142358
1631023478100,24244,163067,142357
1631023478110,24246,163053,142345
1631023478120,24251,163099,142361
1631023478130,24254,163092,142357
1631023478140,24256,163082,142333
1631023478150,24263,163098,142363
1631023478160,24270,163131,142374
1631023478170,24273,163124,142373
1631023478180,24278,163157,142357
1631023478190,24281,163157,142354
1631023478200,24287,163151,142380
1631023478210,24293,163162,142402
1631023478220,24289,163183,142388
1631023478230,24305,163210,142369
1631023478240,24309,163198,142403
1631023478250,24300,163215,142384
1631023478260,24325,163232,142396
1631023478270,24326,163251,142414
1631023478280,24328,163274,142424
1631023478290,24329,163291,142429
1631023478300,24331,163300,142423
1631023478310,24337,163308,142457
1631023478320,24348,163344,142470
1631023478330,24360,163364,142461
1631023478340,24362,163381,142473
1631023478350,24367,163406,142469
1631023478360,24369,163380,142450
1631023478370,24378,163321,142406
1631023478380,24366,163220,142340
1631023478390,24369,163166,142292
1631023478400,24372,163084,142255
1631023478410,24357,163052,142247
1631023478420,24360,163016,142231
1631023478430,24348,162962,142231
1631023478440,24329,162955,142220
1631023478450,24324,162944,142209
1631023478460,24314,162913,142197
1631023478470,24297,162916,142199
1631023478480,24297,162876,142203
1631023478490,24295,162888,142191
1631023478500,24281,162866,142184
1631023478510,24283,162889,142206
1631023478520,24279,162885,142203
1631023478530,24271,162874,142205
1631023478540,24276,162891,142197
1631023478550,24264,162871,142193
1631023478560,24254,162860,142179
1631023478570,24245,162830,142190
1631023478580,24244,162824,142175
1631023478590,24247,162800,142185
1631023478600,24242,162832,142206
1631023478610,24246,162867,142221
1631023478620,24245,162913,142231
1631023478630,24243,162893,142261
1631023478640,24245,162910,142224
1631023478650,24239,162881,142210
1631023478660,24243,162852,142205
1631023478670,24239,162870,142191
1631023478680,24235,162843,142181
1631023478690,24237,162802,142180
1631023478700,24240,162834,142165
1631023478710,24248,162822,142168
1631023478720,24241,162819,142178
1631023478730,24234,162838,142172
1631023478740,24235,162840,142164
1631023478750,24236,162818,142146
1631023478760,24237,162801,142171
1631023478770,24236,162796,142161
1631023478780,24231,162824,142177
1631023478790,24242,162832,142172
1631023478800,24240,162811,142160
1631023478810,24238,162827,142156
1631023478820,24239,162849,142165
1631023478830,24239,162833,142176
1631023478840,24245,162842,142163
1631023478850,24249,162855,142173
1631023478860,24254,162856,142181
1631023478870,24260,162884,142197
1631023478880,24259,162906,142206
1631023478890,24264,162898,142201
1631023478900,24273,162932,142200
1631023478910,24287,162941,142215
1631023478920,24274,162961,142216
1631023478930,24288,162963,142212
1631023478940,24290,162971,142214
1631023478950,24293,162992,142224
1631023478960,24295,162973,142225
1631023478970,24300,162990,142227
1631023478980,24304,162991,142226
1631023478990,24311,163014,142241
1631023479000,24315,163013,142215
1631023479010,24315,163047,142226
1631023479020,24323,163059,142228
1631023479030,24335,163055,142244
1631023479040,24328,163080,142240
1631023479050,24340,163122,142247
1631023479060,24344,163115,142235
1631023479070,24353,163126,142242
1631023479080,24360,163119,142245
1631023479090,24361,163151,142238
1631023479100,24365,163124,142235
1631023479110,24371,163141,142226
1631023479120,24379,163161,142242
1631023479130,24378,163185,142243
1631023479140,24390,163188,142245
1631023479150,24394,163205,142258
1631023479160,24397,163222,142264
1631023479170,24405,163243,142277
1631023479180,24414,163261,142286
1631023479190,24419,163284,142295
1631023479200,24421,163295,142303
1631023479210,24432,163280,142275
1631023479220,24429,163241,142219
1631023479230,24433,163153,142170
1631023479240,24430,163028,142088
1631023479250,24429,162953,142063
1631023479260,24421,162897,142002
1631023479270,24416,162846,141982
1631023479280,24411,162810,141977
1631023479290,24392,162783,141960
1631023479300,24390,162769,141950
1631023479310,24375,162772,141939
1631023479320,24368,162734,141943
1631023479330,24357,162704,141925
1631023479340,24350,162694,141926
1631023479350,24346,162680,141919
1631023479360,24345,162687,141939
1631023479370,24332,162682,141938
1631023479380,24339,162656,141943
1631023479390,24335,162673,141935
1631023479400,24321,162660,141932
1631023479410,24322,162642,141919
1631023479420,24313,162622,141921
1631023479430,24312,162620,141908
1631023479440,24299,162607,141910
1631023479450,24301,162606,141912
1631023479460,24291,162600,141900
1631023479470,24290,162617,141932
1631023479480,24289,162647,141931
1631023479490,24288,162649,141944
1631023479500,24292,162669,141970
1631023479510,24287,162642,141947
1631023479520,24290,162648,141925
1631023479530,24286,162620,141912
1631023479540,24284,162642,141924
1631023479550,24281,162618,141920
1631023479560,24280,162586,141938
1631023479570,24284,162618,141911
1631023479580,24281,162634,141905
1631023479590,24283,162636,141926
1631023479600,24279,162645,141923
1631023479610,24283,162639,141928
1631023479620,24282,162653,141930
1631023479630,24282,162662,141929
1631023479640,24284,162661,141935
1631023479650,24284,162665,141943
1631023479660,24293,162675,141951
1631023479670,24287,162693,141943
1631023479680,24289,162692,141941
1631023479690,24282,162696,141942
1631023479700,24297,162701,141954
1631023479710,24299,162702,141957
1631023479720,24302,162718,141967
1631023479730,24305,162749,141987
1631023479740,24308,162779,141996
1631023479750,24314,162764,141985
1631023479760,24319,162781,141993
1631023479770,24327,162806,142009
1631023479780,24329,162847,142025
1631023479790,24334,162830,142037
1631023479800,24336,162851,142035
1631023479810,24339,162869,142022
1631023479820,24344,162882,142054
1631023479830,24346,162925,142032
1631023479840,24352,162901,142049
1631023479850,24362,162925,142053
1631023479860,24366,162941,142045
1631023479870,24359,162938,142046
1631023479880,24372,162976,142041
1631023479890,24378,162962,142037
1631023479900,24379,162956,142048
1631023479910,24381,162978,142049
1631023479920,24392,162986,142052
1631023479930,24395,162998,142053
1631023479940,24403,163033,142060
1631023479950,24406,163034,142070
1631023479960,24409,163056,142079
1631023479970,24420,163077,142078
1631023479980,24421,163075,142101
1631023479990,24429,163100,142089
1631023480000,24436,163103,142079
1631023480010,24441,163104,142075
1631023480020,24439,163152,142088
1631023480030,24454,163158,142116
1631023480040,24461,163156,142138
1631023480050,24468,163195,142128
1631023480060,24469,163215,142128
1631023480070,24473,163231,142150
1631023480080,24480,163260,142158
1631023480090,24491,163288,142175
1631023480100,24494,163283,142139
1631023480110,24501,163217,142116
1631023480120,24499,163174,142054
1631023480130,24495,163063,141969
1631023480140,24497,162970,141943
1631023480150,24490,162918,141878
1631023480160,24478,162874,141864
1631023480170,24473,162806,141851
1631023480180,24467,162787,141835
1631023480190,24457,162744,141822
1631023480200,24442,162733,141823
1631023480210,24429,162719,141807
1631023480220,24417,162698,141800
1631023480230,24411,162644,141778
1631023480240,24405,162670,141789
1631023480250,24400,162669,141813
1631023480260,24392,162657,141811
1631023480270,24391,162667,141829
1631023480280,24388,162656,141842
1631023480290,24378,162646,141833
1631023480300,24365,162620,141811
1631023480310,24362,162630,141802
1631023480320,24356,162610,141798
1631023480330,24351,162616,141789
1631023480340,24350,162582,141805
1631023480350,24338,162593,141791
1631023480360,24332,162585,141816
1631023480370,24331,162633,141842
1631023480380,24325,162644,141854
1631023480390,24327,162658,141873
1631023480400,24318,162646,141845
1631023480410,24322,162618,141841
1631023480420,24316,162615,141822
1631023480430,24318,162642,141862
1631023480440,24320,162653,141828
1631023480450,24314,162652,141850
1631023480460,24310,162630,141851
1631023480470,24310,162644,141846
1631023480480,24307,162640,141858
1631023480490,24321,162640,141845
1631023480500,24311,162642,141864
1631023480510,24314,162631,141862
1631023480520,24305,162632,141888
1631023480530,24304,162680,141889
1631023480540,24311,162687,141886
1631023480550,24305,162675,141900
1631023480560,24311,162659,141892
1631023480570,24308,162704,141895
1631023480580,24311,162685,141888
1631023480590,24314,162698,141913
1631023480600,24312,162720,141922
1631023480610,24316,162730,141930
1631023480620,24318,162774,141939
1631023480630,24324,162783,141942
1631023480640,24321,162797,141960
1631023480650,24322,162782,141982
1631023480660,24328,162849,141977
1631023480670,24336,162859,141990
1631023480680,24339,162854,141994
1631023480690,24344,162848,141995
1631023480700,24345,162898,142014
1631023480710,24352,162907,142030
1631023480720,24353,162931,142042
1631023480730,24361,162926,142045
1631023480740,24361,162933,142045
1631023480750,24362,162901,142036
1631023480760,24368,162944,142042
1631023480770,24373,162949,142062
1631023480780,24374,162962,142064
1631023480790,24383,162996,142084
1631023480800,24384,163004,142057
1631023480810,24392,163013,142074
1631023480820,24398,163022,142088
1631023480830,24401,163037,142080
1631023480840,24391,163060,142110
1631023480850,24408,163045,142115
1631023480860,24409,163076,142109
1631023480870,24422,163104,142123
1631023480880,24426,163108,142130
1631023480890,24427,163109,142137
1631023480900,24435,163136,142141
1631023480910,24433,163159,142139
1631023480920,24443,163156,142154
1631023480930,24442,163155,142155
1631023480940,24453,163200,142158
1631023480950,24455,163217,142178
1631023480960,24464,163255,142189
1631023480970,24469,163234,142207
1631023480980,24470,163267,142223
1631023480990,24477,163300,142231
1631023481000,24489,163331,142247
1631023481010,24494,163337,142277
1631023481020,24500,163370,142273
1631023481030,24504,163372,142255
1631023481040,24508,163315,142213
1631023481050,24500,163198,142120
1631023481060,24500,163123,142063
1631023481070,24495,163032,142023
1631023481080,24488,162981,141981
1631023481090,24484,162960,141968
1631023481100,24478,162920,141975
1631023481110,24464,162884,141972
1631023481120,24456,162880,141981
1631023481130,24435,162849,141960
1631023481140,24428,162843,141962
1631023481150,24409,162809,141961
1631023481160,24408,162786,141956
1631023481170,24403,162826,141962
1631023481180,24393,162813,141977
1631023481190,24386,162794,141977
1631023481200,24377,162812,141988
1631023481210,24374,162789,141978
1631023481220,24363,162779,141981
1631023481230,24361,162755,141961
1631023481240,24351,162741,141950
1631023481250,24343,162740,141962
1631023481260,24337,162703,141967
1631023481270,24324,162732,141960
1631023481280,24316,162727,141974
1631023481290,24317,162729,142010
1631023481300,24314,162790,142018
1631023481310,24315,162802,142038
1631023481320,24312,162765,142028
1631023481330,24307,162778,142002
1631023481340,24301,162742,142033
1631023481350,24302,162755,142027
1631023481360,24298,162772,142015
1631023481370,24296,162740,142014
1631023481380,24293,162737,141998
1631023481390,24294,162740,142020
1631023481400,24288,162731,142012
1631023481410,24285,162747,142028
1631023481420,24282,162745,142028
1631023481430,24287,162738,142054
1631023481440,24277,162744,142039
1631023481450,24275,162758,142024
1631023481460,24273,162758,142043
1631023481470,24271,162779,142042
1631023481480,24273,162764,142042
1631023481490,24275,162780,142073
1631023481500,24266,162790,142074
1631023481510,24273,162794,142090
1631023481520,24270,162796,142077
1631023481530,24272,162817,142087
1631023481540,24270,162805,142097
1631023481550,24272,162831,142105
1631023481560,24281,162846,142126
1631023481570,24277,162876,142132
1631023481580,24284,162886,142125
1631023481590,24281,162874,142162
1631023481600,24284,162896,142135
1631023481610,24286,162926,142162
1631023481620,24293,162933,142160
1631023481630,24290,162911,142175
1631023481640,24293,162932,142159
1631023481650,24297,162946,142181
1631023481660,24295,162946,142155
1631023481670,24303,162948,142179
1631023481680,24299,162967,142175
1631023481690,24306,162986,142172
1631023481700,24311,162975,142171
1631023481710,24316,162966,142187
1631023481720,24318,163002,142173
1631023481730,24324,162981,142185
1631023481740,24323,163032,142197
1631023481750,24335,163024,142203
1631023481760,24335,163033,142205
1631023481770,24341,163062,142210
1631023481780,24345,163076,142213
1631023481790,24341,163068,142210
1631023481800,24350,163088,142199
1631023481810,24371,163073,142222
1631023481820,24358,163112,142244
1631023481830,24365,163121,142249
1631023481840,24363,163119,142228
1631023481850,24364,163130,142244
1631023481860,24371,163152,142252
1631023481870,24379,163165,142272
1631023481880,24391,163206,142282
1631023481890,24388,163221,142282
1631023481900,24394,163205,142281
1631023481910,24400,163208,142284
1631023481920,24405,163190,142240
1631023481930,24404,163104,142180
1631023481940,24395,162983,142110
1631023481950,24399,162949,142049
1631023481960,24386,162892,142028
1631023481970,24376,162863,142014
1631023481980,24371,162806,142003
1631023481990,24359,162775,142003
1631023482000,24347,162725,141976
1631023482010,24330,162738,141977
1631023482020,24322,162687,141953
1631023482030,24307,162674,141951
1631023482040,24303,162652,141943
1631023482050,24288,162632,141944
1631023482060,24284,162668,141943
1631023482070,24277,162658,141955
1631023482080,24271,162651,141956
1631023482090,24267,162642,141968
1631023482100,24261,162641,141949
1631023482110,24253,162591,141939
1631023482120,24242,162592,141933
1631023482130,24232,162584,141943
1631023482140,24233,162573,141933
1631023482150,24232,162565,141931
1631023482160,24227,162632,141967
1631023482170,24220,162639,141986
1631023482180,24220,162651,141980
1631023482190,24220,162642,141989
1631023482200,24219,162595,141954
1631023482210,24218,162579,141958
1631023482220,24214,162598,141944
1631023482230,24217,162583,141931
1631023482240,24210,162577,141918
1631023482250,24205,162531,141917
1631023482260,24199,162548,141920
1631023482270,24196,162509,141904
1631023482280,24200,162507,141932
1631023482290,24190,162500,141912
1631023482300,24198,162493,141914
1631023482310,24183,162484,141899
1631023482320,24192,162500,141916
1631023482330,24194,162504,141908
1631023482340,24190,162530,141902
1631023482350,24186,162536,141905
1631023482360,24187,162494,141902
1631023482370,24191,162528,141896
1631023482380,24189,162530,141907
1631023482390,24189,162517,141910
1631023482400,24196,162529,141908
1631023482410,24195,162542,141916
1631023482420,24195,162563,141926
1631023482430,24205,162583,141934
1631023482440,24199,162571,141937
1631023482450,24208,162586,141946
1631023482460,24220,162601,141960
1631023482470,24222,162600,141946
1631023482480,24222,162635,141947
1631023482490,24220,162660,141955
1631023482500,24228,162638,141975
1631023482510,24229,162670,141971
1631023482520,24237,162663,141980
1631023482530,24237,162686,141995
1631023482540,24244,162693,141975
1631023482550,24245,162713,141982
1631023482560,24258,162709,141982
1631023482570,24253,162747,142001
1631023482580,24264,162751,142027
1631023482590,24261,162790,141999
1631023482600,24266,162800,141998
1631023482610,24277,162798,142019
1631023482620,24276,162799,142009
1631023482630,24276,162820,142019
1631023482640,24284,162844,142013
1631023482650,24292,162815,142005
1631023482660,24297,162838,142013
1631023482670,24299,162851,142025
1631023482680,24308,162878,142026
1631023482690,24315,162909,142040
1631023482700,24322,162913,142054
1631023482710,24330,162913,142056
1631023482720,24332,162930,142045
1631023482730,24341,162929,142056
1631023482740,24344,162980,142092
1631023482750,24350,162978,142071
1631023482760,24353,162939,142029
1631023482770,24342,162862,141968
1631023482780,24341,162744,141898
1631023482790,24340,162666,141846
1631023482800,24336,162628,141821
1631023482810,24329,162555,141795
1631023482820,24320,162538,141785
1631023482830,24314,162515,141787
1631023482840,24295,162486,141747
1631023482850,24281,162443,141746
1631023482860,24274,162404,141733
1631023482870,24263,162401,141713
1631023482880,24254,162390,141720
1631023482890,24243,162381,141712
1631023482900,24236,162379,141738
1631023482910,24231,162377,141736
1631023482920,24230,162377,141738
1631023482930,24218,162348,141751
1631023482940,24214,162350,141738
1631023482950,24209,162344,141739
1631023482960,24202,162318,141721
1631023482970,24200,162316,141716
1631023482980,24192,162301,141721
1631023482990,24187,162277,141719
1631023483000,24178,162281,141711
1631023483010,24174,162287,141722
1631023483020,24172,162342,141759
1631023483030,24170,162372,141779
1631023483040,24173,162343,141779
1631023483050,24167,162329,141806
1631023483060,24168,162336,141759
1631023483070,24161,162331,141749
1631023483080,24163,162320,141771
1631023483090,24162,162326,141782
1631023483100,24159,162330,141759
1631023483110,24159,162307,141768
1631023483120,24159,162314,141775
1631023483130,24169,162335,141786
1631023483140,24163,162330,141779
1631023483150,24160,162315,141766
1631023483160,24158,162330,141760
1631023483170,24159,162333,141791
1631023483180,24159,162355,141785
1631023483190,24165,162355,141782
1631023483200,24165,162363,141820
1631023483210,24166,162384,141809
1631023483220,24171,162371,141817
1631023483230,24175,162417,141802
1631023483240,24173,162400,141834
1631023483250,24175,162402,141836
1631023483260,24179,162437,141844
1631023483270,24186,162459,141860
1631023483280,24188,162452,141861
1631023483290,24198,162479,141875
1631023483300,24199,162500,141864
1631023483310,24199,162502,141887
1631023483320,24204,162528,141908
1631023483330,24212,162557,141930
1631023483340,24213,162569,141899
1631023483350,24222,162571,141938
1631023483360,24228,162599,141927
1631023483370,24228,162597,141930
1631023483380,24237,162630,141939
1631023483390,24234,162646,141952
1631023483400,24246,162649,141947
1631023483410,24253,162645,141949
1631023483420,24259,162665,141943
1631023483430,24263,162674,141954
1631023483440,24270,162669,141939
1631023483450,24257,162692,141951
1631023483460,24272,162703,141948
1631023483470,24278,162710,141981
1631023483480,24281,162752,141965
1631023483490,24292,162762,141976
1631023483500,24294,162776,141951
1631023483510,24301,162781,141982
1631023483520,24304,162791,141984
1631023483530,24311,162769,141986
1631023483540,24320,162809,141977
1631023483550,24323,162812,142005
1631023483560,24329,162850,141990
1631023483570,24338,162864,141996
1631023483580,24349,162873,142010
1631023483590,24353,162908,142024
1631023483600,24367,162932,142044
1631023483610,24366,162931,142038
1631023483620,24371,162969,142076
1631023483630,24385,162968,142075
1631023483640,24382,162988,142061
1631023483650,24381,162917,142006
1631023483660,24386,162851,141928
1631023483670,24385,162738,141871
1631023483680,24378,162681,141835
1631023483690,24369,162619,141798
1631023483700,24363,162535,141798
1631023483710,24352,162530,141760
1631023483720,24344,162481,141758
1631023483730,24338,162483,141747
1631023483740,24330,162459,141746
1631023483750,24324,162445,141731
1631023483760,24312,162432,141735
1631023483770,24299,162429,141732
1631023483780,24301,162410,141743
1631023483790,24291,162419,141770
1631023483800,24293,162421,141782
1631023483810,24289,162416,141777
1631023483820,24284,162428,141786
1631023483830,24281,162407,141768
1631023483840,24278,162388,141782
1631023483850,24269,162369,141781
1631023483860,24262,162347,141746
1631023483870,24255,162348,141728
1631023483880,24252,162352,141761
1631023483890,24247,162347,141774
1631023483900,24244,162358,141785
1631023483910,24256,162388,141823
1631023483920,24253,162416,141836
1631023483930,24245,162413,141814
1631023483940,24249,162423,141834
1631023483950,24250,162393,141827
1631023483960,24250,162400,141815
1631023483970,24249,162406,141824
1631023483980,24248,162427,141819
1631023483990,24258,162417,141828
1631023484000,24253,162431,141848
1631023484010,24255,162404,141837
1631023484020,24262,162420,141837
1631023484030,24262,162440,141859
1631023484040,24257,162415,141860
1631023484050,24255,162459,141852
1631023484060,24260,162448,141864
1631023484070,24259,162438,141865
1631023484080,24270,162468,141889
1631023484090,24270,162470,141865
1631023484100,24272,162498,141865
1631023484110,24273,162501,141879
1631023484120,24280,162512,141899
1631023484130,24275,162524,141918
1631023484140,24283,162531,141922
1631023484150,24280,162550,141943
1631023484160,24291,162559,141937
1631023484170,24296,162576,141963
1631023484180,24297,162602,141967
1631023484190,24306,162626,141970
1631023484200,24310,162625,141986
1631023484210,24320,162652,141992
1631023484220,24321,162667,142032
1631023484230,24319,162670,142021
1631023484240,24326,162694,142032
1631023484250,24333,162694,142018
1631023484260,24344,162726,142027
1631023484270,24354,162739,142008
1631023484280,24353,162753,142030
1631023484290,24358,162763,142052
1631023484300,24360,162768,142035
1631023484310,24370,162785,142070
1631023484320,24370,162784,142058
1631023484330,24373,162798,142056
1631023484340,24381,162825,142066
1631023484350,24386,162806,142053
1631023484360,24388,162831,142063
1631023484370,24398,162845,142078
1631023484380,24406,162857,142057
1631023484390,24412,162897,142095
1631023484400,24421,162890,142105
1631023484410,24431,162913,142113
1631023484420,24424,162907,142096
1631023484430,24424,162927,142100
1631023484440,24437,162948,142121
1631023484450,24444,162971,142130
1631023484460,24448,162959,142134
1631023484470,24450,163005,142143
1631023484480,24460,162997,142163
1631023484490,24468,163037,142185
1631023484500,24479,163076,142194
1631023484510,24484,163097,142200
1631023484520,24492,163133,142230
1631023484530,24490,163114,142216
1631023484540,24493,163058,142145
1631023484550,24499,162966,142080
1631023484560,24492,162879,142014
1631023484570,24502,162808,141957
1631023484580,24500,162772,141962
1631023484590,24491,162747,141962
1631023484600,24485,162750,141962
1631023484610,24484,162694,141955
1631023484620,24470,162686,141951
1631023484630,24463,162691,141939
1631023484640,24457,162665,141938
1631023484650,24452,162645,141929
1631023484660,24445,162630,141941
1631023484670,24444,162629,141927
1631023484680,24433,162614,141952
1631023484690,24440,162639,141958
1631023484700,24433,162628,141956
1631023484710,24430,162622,141953
1631023484720,24423,162588,141967
1631023484730,24417,162572,141948
1631023484740,24414,162568,141921
1631023484750,24410,162553,141912
1631023484760,24401,162534,141916
1631023484770,24400,162562,141920
1631023484780,24398,162581,141940
1631023484790,24399,162613,141971
1631023484800,24398,162606,141987
1631023484810,24400,162634,141984
1631023484820,24399,162602,141973
1631023484830,24399,162594,141958
1631023484840,24397,162577,141953
1631023484850,24394,162569,141945
1631023484860,24393,162569,141955
1631023484870,24388,162548,141934
1631023484880,24389,162553,141951
1631023484890,24393,162569,141966
1631023484900,24391,162591,141950
1631023484910,24394,162570,141940
1631023484920,24397,162545,141959
1631023484930,24393,162572,141936
1631023484940,24392,162572,141955
1631023484950,24396,162568,141955
1631023484960,24395,162575,141978
1631023484970,24393,162608,141969
1631023484980,24403,162599,141982
1631023484990,24402,162599,141986
1631023485000,24398,162607,141992
1631023485010,24399,162597,141993
1631023485020,24403,162616,141981
1631023485030,24403,162643,142005
1631023485040,24401,162661,142015
1631023485050,24413,162671,142010
1631023485060,24419,162682,142020
1631023485070,24424,162703,142015
1631023485080,24421,162716,142041
1631023485090,24417,162693,142047
1631023485100,24431,162738,142032
1631023485110,24430,162726,142028
1631023485120,24439,162751,142049
1631023485130,24442,162756,142046
1631023485140,24439,162772,142045
1631023485150,24451,162793,142068
1631023485160,24451,162790,142061
1631023485170,24453,162813,142051
1631023485180,24460,162809,142057
1631023485190,24451,162825,142073
1631023485200,24471,162788,142058
1631023485210,24467,162825,142057
1631023485220,24475,162825,142070
1631023485230,24471,162835,142050
1631023485240,24488,162848,142067
1631023485250,24490,162859,142063
1631023485260,24492,162862,142063
1631023485270,24496,162865,142062
1631023485280,24500,162874,142052
1631023485290,24504,162909,142074
1631023485300,24512,162893,142089
1631023485310,24517,162920,142086
1631023485320,24520,162930,142070
1631023485330,24523,162924,142087
1631023485340,24531,162951,142100
1631023485350,24535,162961,142104
1631023485360,24536,162994,142096
1631023485370,24549,162993,142090
1631023485380,24552,163001,142115
1631023485390,24550,162911,142023
1631023485400,24547,162816,141949
1631023485410,24543,162729,141876
1631023485420,24541,162669,141851
1631023485430,24532,162634,141819
1631023485440,24523,162605,141820
1631023485450,24517,162573,141801
1631023485460,24505,162542,141793
1631023485470,24493,162515,141785
1631023485480,24487,162498,141776
1631023485490,24476,162481,141769
1631023485500,24466,162454,141759
1631023485510,24453,162454,141747
1631023485520,24451,162393,141763
1631023485530,24449,162438,141749
1631023485540,24432,162437,141754
1631023485550,24427,162414,141766
1631023485560,24420,162390,141751
1631023485570,24413,162393,141752
1631023485580,24408,162387,141739
1631023485590,24401,162364,141739
1631023485600,24392,162352,141713
1631023485610,24384,162319,141725
1631023485620,24376,162315,141723
1631023485630,24364,162382,141756
1631023485640,24366,162376,141762
1631023485650,24363,162407,141791
1631023485660,24362,162377,141768
1631023485670,24353,162383,141764
1631023485680,24354,162368,141738
1631023485690,24351,162381,141745
1631023485700,24340,162372,141733
1631023485710,24344,162336,141714
1631023485720,24339,162333,141722
1631023485730,24334,162353,141739
1631023485740,24329,162347,141742
1631023485750,24336,162367,141743
1631023485760,24332,162331,141726
1631023485770,24327,162339,141738
1631023485780,24321,162357,141736
1631023485790,24325,162342,141736
1631023485800,24317,162372,141733
1631023485810,24317,162363,141740
1631023485820,24319,162350,141771
1631023485830,24313,162382,141762
1631023485840,24313,162379,141754
1631023485850,24311,162380,141743
1631023485860,24320,162382,141765
1631023485870,24310,162406,141773
1631023485880,24316,162424,141779
1631023485890,24315,162439,141784
1631023485900,24317,162428,141798
1631023485910,24320,162506,141809
1631023485920,24323,162511,141833
1631023485930,24324,162523,141822
1631023485940,24326,162523,141840
1631023485950,24325,162539,141836
1631023485960,24325,162546,141840
1631023485970,24329,162551,141851
1631023485980,24337,162555,141848
1631023485990,24333,162556,141848
1631023486000,24338,162576,141849
