timestamp,green,ir,red
1630501821552,94704,287814,396707
1630501821562,94715,287853,396688
1630501821572,94753,287881,396752
1630501821582,94744,287923,396728
1630501821592,94748,287912,396731
1630501821602,94766,287935,396778
1630501821612,94769,287946,396744
1630501821622,94783,288007,396795
1630501821632,94794,288022,396809
1630501821642,94808,288009,396786
1630501821652,94809,288016,396821
1630501821662,94801,287949,396829
1630501821672,94828,287995,396831
1630501821682,94810,288026,396849
1630501821692,94797,288018,396837
1630501821702,94820,287957,396871
1630501821712,94808,288040,396892
1630501821722,94806,287967,396890
1630501821732,94812,288052,396924
1630501821742,94807,288064,396925
1630501821752,94823,288090,396978
1630501821762,94862,288107,397018
1630501821772,94858,288170,396991
1630501821782,94856,288200,397058
1630501821792,94863,288200,396986
1630501821802,94873,288181,397067
1630501821812,94886,288261,397083
1630501821822,94916,288266,397127
1630501821832,94947,288300,397159
1630501821842,94973,288331,397231
1630501821852,94969,288371,397225
1630501821862,94995,288401,397227
1630501821872,95006,288385,397267
1630501821882,95033,288413,397269
1630501821892,95017,288398,397298
1630501821902,95037,288406,397313
1630501821912,95048,288387,397271
1630501821922,95031,288393,397295
1630501821932,95044,288388,397282
1630501821942,95044,288365,397310
1630501821952,95053,288380,397265
1630501821962,95049,288366,397264
1630501821972,95039,288323,397229
1630501821982,95035,288373,397199
1630501821992,95047,288345,397218
1630501822002,95032,288294,397193
1630501822012,95049,288287,397148
1630501822022,95053,288266,397185
1630501822032,95071,288202,397118
1630501822042,95048,288197,397159
1630501822052,95045,288238,397126
1630501822062,95043,288186,397110
1630501822072,95041,288199,397114
1630501822082,95038,288177,397038
1630501822092,95042,288134,397103
1630501822102,95024,288107,397039
1630501822112,95025,288166,397018
1630501822122,95023,288109,397054
1630501822132,95036,288122,397012
1630501822142,95028,288139,397027
1630501822152,95030,288110,396990
1630501822162,95030,288129,396990
1630501822172,95056,288085,397009
1630501822182,95049,288082,397007
1630501822192,95047,288066,396941
1630501822202,95048,288062,396931
1630501822212,95048,288027,396959
1630501822222,95066,288021,396924
1630501822232,95056,287978,396893
1630501822242,95047,287977,396910
1630501822252,95063,287951,396930
1630501822262,95051,287969,396928
1630501822272,95033,287979,396887
1630501822282,95022,287918,396900
1630501822292,95009,287907,396852
1630501822302,94982,287896,396815
1630501822312,94973,287843,396828
1630501822322,94957,287874,396874
1630501822332,94980,287871,396859
1630501822342,94953,287855,396825
1630501822352,94922,287819,396791
1630501822362,94930,287828,396817
1630501822372,94919,287746,396778
1630501822382,94900,287754,396764
1630501822392,94907,287732,396749
1630501822402,94885,287733,396750
1630501822412,94868,287738,396703
1630501822422,94860,287738,396682
1630501822432,94852,287710,396732
1630501822442,94851,287697,396670
1630501822452,94853,287683,396680
1630501822462,94846,287660,396658
1630501822472,94853,287622,396661
1630501822482,94874,287610,396643
1630501822492,94856,287672,396606
1630501822502,94857,287623,396606
1630501822512,94831,287630,396628
1630501822522,94849,287618,396606
1630501822532,94844,287643,396613
1630501822542,94824,287617,396617
1630501822552,94829,287593,396563
1630501822562,94825,287587,396586
1630501822572,94811,287528,396565
1630501822582,94810,287556,396498
1630501822592,94799,287532,396525
1630501822602,94790,287534,396539
1630501822612,94789,287520,396482
1630501822622,94789,287492,396461
1630501822632,94792,287512,396484
1630501822642,94801,287493,396514
1630501822652,94801,287466,396450
1630501822662,94780,287496,396445
1630501822672,94792,287459,396456
1630501822682,94788,287453,396451
1630501822692,94782,287447,396434
1630501822702,94771,287417,396461
1630501822712,94756,287418,396434
1630501822722,94761,287394,396400
1630501822732,94765,287404,396419
1630501822742,94742,287384,396404
1630501822752,94765,287410,396367
1630501822762,94761,287419,396346
1630501822772,94765,287360,396338
1630501822782,94778,287354,396359
1630501822792,94754,287355,396328
1630501822802,94763,287381,396383
1630501822812,94771,287343,396294
1630501822822,94781,287343,396392
1630501822832,94780,287347,396350
1630501822842,94787,287321,396306
1630501822852,94779,287316,396312
1630501822862,94774,287273,396348
1630501822872,94759,287282,396320
1630501822882,94748,287283,396315
1630501822892,94729,287205,396349
1630501822902,94727,287207,396338
1630501822912,94708,287187,396339
1630501822922,94688,287200,396293
1630501822932,94664,287228,396257
1630501822942,94652,287183,396259
1630501822952,94644,287133,396271
1630501822962,94620,287150,396288
1630501822972,94624,287162,396277
1630501822982,94612,287109,396249
1630501822992,94592,287109,396207
1630501823002,94610,287099,396218
1630501823012,94580,287105,396222
1630501823022,94572,287068,396214
1630501823032,94562,287078,396196
1630501823042,94548,287090,396195
1630501823052,94555,287056,396106
1630501823062,94538,287022,396115
1630501823072,94549,287042,396128
1630501823082,94543,286988,396124
1630501823092,94549,286997,396105
1630501823102,94543,286995,396082
1630501823112,94562,287018,396054
1630501823122,94558,286985,396103
1630501823132,94563,286974,396097
1630501823142,94549,286957,396070
1630501823152,94542,286958,396022
1630501823162,94531,286981,396036
1630501823172,94519,286953,395985
1630501823182,94523,286949,395999
1630501823192,94512,286967,395951
1630501823202,94521,286951,395964
1630501823212,94527,286929,395927
1630501823222,94513,286916,395937
1630501823232,94503,286890,395937
1630501823242,94528,286927,395915
1630501823252,94519,286907,395901
1630501823262,94520,286886,395914
1630501823272,94526,286920,395883
1630501823282,94522,286910,395905
1630501823292,94530,286902,395907
1630501823302,94543,286915,395905
1630501823312,94556,286926,395880
1630501823322,94536,286962,395886
1630501823332,94559,286871,395882
1630501823342,94558,286920,395869
1630501823352,94561,286903,395847
1630501823362,94556,286915,395850
1630501823372,94552,286909,395825
1630501823382,94565,286896,395837
1630501823392,94559,286888,395796
1630501823402,94567,286870,395796
1630501823412,94585,286883,395795
1630501823422,94571,286852,395787
1630501823432,94567,286856,395734
1630501823442,94548,286821,395729
1630501823452,94557,286765,395755
1630501823462,94545,286805,395743
1630501823472,94548,286787,395750
1630501823482,94538,286722,395697
1630501823492,94536,286750,395687
1630501823502,94514,286712,395711
1630501823512,94490,286694,395681
1630501823522,94473,286701,395652
1630501823532,94448,286631,395634
1630501823542,94432,286611,395643
1630501823552,94423,286657,395654
1630501823562,94390,286633,395594
1630501823572,94386,286586,395575
1630501823582,94377,286577,395552
1630501823592,94344,286542,395580
1630501823602,94340,286562,395553
1630501823612,94345,286570,395526
1630501823622,94329,286555,395548
1630501823632,94345,286544,395518
1630501823642,94328,286529,395520
1630501823652,94308,286529,395507
1630501823662,94294,286518,395483
1630501823672,94309,286493,395446
1630501823682,94317,286489,395482
1630501823692,94308,286487,395457
1630501823702,94310,286483,395470
1630501823712,94309,286437,395405
1630501823722,94295,286453,395477
1630501823732,94289,286445,395469
1630501823742,94273,286479,395414
1630501823752,94269,286431,395413
1630501823762,94252,286455,395420
1630501823772,94277,286438,395431
1630501823782,94271,286433,395377
1630501823792,94264,286402,395403
1630501823802,94257,286438,395401
1630501823812,94256,286435,395354
1630501823822,94252,286402,395389
1630501823832,94261,286425,395409
1630501823842,94253,286438,395384
1630501823852,94244,286386,395351
1630501823862,94236,286421,395294
1630501823872,94254,286368,395327
1630501823882,94239,286412,395343
1630501823892,94238,286408,395310
1630501823902,94240,286361,395313
1630501823912,94229,286322,395323
1630501823922,94228,286340,395313
1630501823932,94242,286356,395280
1630501823942,94234,286306,395279
1630501823952,94256,286346,395274
1630501823962,94218,286313,395264
1630501823972,94246,286335,395202
1630501823982,94242,286304,395234
1630501823992,94242,286260,395213
1630501824002,94237,286244,395151
1630501824012,94243,286268,395159
1630501824022,94241,286224,395140
1630501824032,94228,286212,395147
1630501824042,94230,286255,395121
1630501824052,94238,286239,395115
1630501824062,94237,286262,395090
1630501824072,94263,286235,395118
1630501824082,94256,286205,395105
1630501824092,94261,286231,395114
1630501824102,94253,286214,395161
1630501824112,94256,286190,395093
1630501824122,94194,286206,395061
1630501824132,94229,286199,395083
1630501824142,94213,286157,395088
1630501824152,94168,286132,395107
1630501824162,94179,286140,395042
1630501824172,94148,286115,395058
1630501824182,94154,286132,395074
1630501824192,94142,286111,395044
1630501824202,94104,286114,395013
1630501824212,94095,286088,395044
1630501824222,94100,286099,395031
1630501824232,94096,286068,395061
1630501824242,94079,286059,395034
1630501824252,94087,286064,394983
1630501824262,94091,286065,394975
1630501824272,94074,286045,395013
1630501824282,94073,286022,394978
1630501824292,94086,286024,394915
1630501824302,94077,286038,394957
1630501824312,94079,286044,394942
1630501824322,94072,286042,394920
1630501824332,94073,286032,394928
1630501824342,94061,286018,394943
1630501824352,94067,285982,394929
1630501824362,94046,286022,394934
1630501824372,94044,285992,394939
1630501824382,94050,286051,394952
1630501824392,94064,286054,394894
1630501824402,94053,286005,394940
1630501824412,94048,285989,394916
1630501824422,94053,286015,394898
1630501824432,94051,286009,394889
1630501824442,94051,285993,394906
1630501824452,94051,286020,394881
1630501824462,94062,285996,394887
1630501824472,94054,286007,394876
1630501824482,94060,285985,394864
1630501824492,94064,286009,394851
1630501824502,94064,285953,394862
1630501824512,94065,285955,394884
1630501824522,94051,286000,394896
1630501824532,94058,285974,394845
1630501824542,94062,285982,394874
1630501824552,94060,286014,394856
1630501824562,94071,286013,394913
1630501824572,94085,286005,394853
1630501824582,94092,286042,394922
1630501824592,94088,286008,394875
1630501824602,94101,286023,394851
1630501824612,94113,286056,394911
1630501824622,94124,286058,394876
1630501824632,94127,286115,394944
1630501824642,94140,286086,394927
1630501824652,94137,286128,394928
1630501824662,94155,286137,394952
1630501824672,94169,286116,394986
1630501824682,94192,286169,394984
1630501824692,94174,286154,395067
1630501824702,94192,286192,395039
1630501824712,94191,286170,395068
1630501824722,94190,286205,395085
1630501824732,94188,286190,395114
1630501824742,94177,286221,395146
1630501824752,94193,286242,395180
1630501824762,94181,286291,395244
1630501824772,94186,286313,395281
1630501824782,94194,286338,395296
1630501824792,94209,286339,395332
1630501824802,94210,286387,395341
1630501824812,94224,286413,395345
1630501824822,94230,286475,395343
1630501824832,94238,286481,395411
1630501824842,94243,286515,395428
1630501824852,94254,286512,395440
1630501824862,94261,286529,395550
1630501824872,94268,286601,395509
1630501824882,94278,286598,395559
1630501824892,94305,286664,395582
1630501824902,94329,286688,395653
1630501824912,94348,286680,395664
1630501824922,94391,286764,395702
1630501824932,94391,286735,395718
1630501824942,94431,286816,395773
1630501824952,94420,286845,395800
1630501824962,94434,286865,395850
1630501824972,94447,286901,395865
1630501824982,94466,286951,395890
1630501824992,94499,286948,395918
1630501825002,94486,286919,395947
1630501825012,94477,286952,395979
1630501825022,94484,286986,395946
1630501825032,94501,286998,395987
1630501825042,94515,287000,395998
1630501825052,94530,287064,396043
1630501825062,94559,287129,396138
1630501825072,94595,287127,396167
1630501825082,94585,287114,396167
1630501825092,94599,287136,396183
1630501825102,94598,287157,396239
1630501825112,94634,287167,396237
1630501825122,94637,287209,396216
1630501825132,94629,287216,396255
1630501825142,94644,287249,396349
1630501825152,94688,287238,396378
1630501825162,94693,287295,396340
1630501825172,94703,287353,396419
1630501825182,94712,287353,396412
1630501825192,94741,287380,396437
1630501825202,94736,287387,396455
1630501825212,94759,287421,396461
1630501825222,94770,287405,396510
1630501825232,94789,287447,396547
1630501825242,94817,287412,396550
1630501825252,94822,287442,396529
1630501825262,94833,287454,396523
1630501825272,94858,287429,396527
1630501825282,94843,287441,396542
1630501825292,94854,287408,396484
1630501825302,94837,287371,396446
1630501825312,94828,287386,396424
1630501825322,94840,287368,396445
1630501825332,94830,287313,396465
1630501825342,94797,287298,396440
1630501825352,94791,287308,396442
1630501825362,94787,287331,396412
1630501825372,94770,287325,396431
1630501825382,94763,287315,396468
1630501825392,94756,287303,396419
1630501825402,94776,287302,396466
1630501825412,94752,287361,396488
1630501825422,94761,287361,396469
1630501825432,94774,287329,396464
1630501825442,94755,287325,396437
1630501825452,94744,287353,396455
1630501825462,94724,287332,396422
1630501825472,94729,287339,396386
1630501825482,94729,287292,396430
1630501825492,94734,287341,396381
1630501825502,94725,287301,396320
1630501825512,94734,287259,396329
1630501825522,94720,287282,396323
1630501825532,94718,287255,396316
1630501825542,94710,287230,396343
1630501825552,94716,287283,396333
1630501825562,94736,287233,396338
1630501825572,94732,287300,396329
1630501825582,94720,287268,396336
1630501825592,94724,287289,396300
1630501825602,94726,287337,396288
1630501825612,94734,287293,396314
1630501825622,94739,287325,396330
1630501825632,94739,287335,396355
1630501825642,94731,287320,396345
1630501825652,94728,287295,396320
1630501825662,94727,287275,396309
1630501825672,94726,287254,396302
1630501825682,94705,287276,396282
1630501825692,94707,287259,396280
1630501825702,94711,287224,396295
1630501825712,94700,287223,396213
1630501825722,94714,287201,396224
1630501825732,94720,287159,396218
1630501825742,94711,287231,396222
1630501825752,94701,287187,396221
1630501825762,94716,287196,396196
1630501825772,94720,287197,396213
1630501825782,94714,287191,396147
1630501825792,94699,287150,396193
1630501825802,94736,287150,396171
1630501825812,94711,287153,396164
1630501825822,94732,287172,396187
1630501825832,94731,287127,396124
1630501825842,94710,287157,396136
1630501825852,94715,287146,396137
1630501825862,94725,287131,396157
1630501825872,94715,287082,396037
1630501825882,94703,287048,396051
1630501825892,94716,287039,396006
1630501825902,94723,287046,395971
1630501825912,94719,286984,395931
1630501825922,94713,286991,395934
1630501825932,94696,286926,395947
1630501825942,94675,286902,395934
1630501825952,94677,286918,395866
1630501825962,94670,286889,395891
1630501825972,94631,286875,395845
1630501825982,94612,286832,395834
1630501825992,94596,286777,395811
1630501826002,94571,286765,395725
1630501826012,94548,286791,395769
1630501826022,94543,286776,395739
1630501826032,94537,286733,395754
1630501826042,94544,286715,395694
1630501826052,94537,286689,395686
1630501826062,94484,286670,395638
1630501826072,94505,286680,395628
1630501826082,94494,286644,395581
1630501826092,94489,286611,395589
1630501826102,94459,286604,395536
1630501826112,94468,286560,395471
1630501826122,94460,286542,395504
1630501826132,94428,286509,395430
1630501826142,94425,286471,395379
1630501826152,94426,286457,395378
1630501826162,94407,286433,395324
1630501826172,94404,286407,395323
1630501826182,94391,286341,395271
1630501826192,94366,286322,395239
1630501826202,94362,286281,395194
1630501826212,94336,286297,395202
1630501826222,94353,286231,395150
1630501826232,94336,286231,395062
1630501826242,94340,286207,395044
1630501826252,94302,286155,395060
1630501826262,94301,286186,395007
1630501826272,94313,286157,394981
1630501826282,94307,286128,394947
1630501826292,94277,286070,394928
1630501826302,94302,286071,394911
1630501826312,94292,286029,394885
1630501826322,94291,286060,394909
1630501826332,94296,286071,394888
1630501826342,94286,286042,394863
1630501826352,94292,286052,394850
1630501826362,94273,286034,394853
1630501826372,94280,285976,394833
1630501826382,94284,285988,394820
1630501826392,94302,286018,394780
1630501826402,94289,285978,394755
1630501826412,94294,286004,394762
1630501826422,94288,285972,394756
1630501826432,94267,285961,394728
1630501826442,94290,285967,394740
1630501826452,94282,285942,394696
1630501826462,94270,285944,394708
1630501826472,94280,285912,394651
1630501826482,94283,285895,394679
1630501826492,94293,285886,394678
1630501826502,94295,285910,394661
1630501826512,94296,285860,394649
1630501826522,94283,285913,394651
1630501826532,94298,285850,394615
1630501826542,94286,285843,394618
1630501826552,94276,285766,394610
1630501826562,94275,285817,394562
1630501826572,94252,285798,394630
1630501826582,94249,285785,394585
1630501826592,94234,285755,394564
1630501826602,94213,285750,394554
1630501826612,94185,285790,394553
1630501826622,94177,285732,394540
1630501826632,94170,285717,394533
1630501826642,94154,285729,394568
1630501826652,94164,285694,394467
1630501826662,94159,285670,394503
1630501826672,94153,285693,394497
1630501826682,94140,285658,394481
1630501826692,94111,285636,394485
1630501826702,94133,285654,394403
1630501826712,94125,285631,394392
1630501826722,94104,285609,394413
1630501826732,94110,285602,394396
1630501826742,94110,285574,394381
1630501826752,94107,285592,394394
1630501826762,94106,285582,394371
1630501826772,94105,285559,394355
1630501826782,94090,285569,394315
1630501826792,94083,285534,394335
1630501826802,94079,285531,394321
1630501826812,94061,285527,394310
1630501826822,94081,285509,394300
1630501826832,94075,285523,394316
1630501826842,94070,285517,394297
1630501826852,94076,285518,394297
1630501826862,94079,285511,394243
1630501826872,94054,285476,394259
1630501826882,94070,285465,394226
1630501826892,94062,285455,394212
1630501826902,94069,285432,394244
1630501826912,94063,285444,394179
1630501826922,94060,285417,394211
1630501826932,94037,285413,394202
1630501826942,94047,285392,394181
1630501826952,94042,285432,394186
1630501826962,94038,285435,394170
1630501826972,94042,285447,394164
1630501826982,94043,285405,394164
1630501826992,94050,285437,394197
1630501827002,94062,285415,394114
1630501827012,94089,285410,394152
1630501827022,94054,285423,394119
1630501827032,94073,285409,394124
1630501827042,94080,285385,394165
1630501827052,94054,285391,394120
1630501827062,94072,285418,394113
1630501827072,94092,285385,394083
1630501827082,94095,285367,394077
1630501827092,94091,285403,394076
1630501827102,94094,285323,394030
1630501827112,94091,285404,394034
1630501827122,94087,285369,394049
1630501827132,94101,285334,394094
1630501827142,94100,285319,394038
1630501827152,94107,285322,394027
1630501827162,94093,285322,394022
1630501827172,94069,285279,393989
1630501827182,94067,285307,394029
1630501827192,94064,285263,394013
1630501827202,94037,285182,394005
1630501827212,94036,285231,394044
1630501827222,94009,285232,393968
1630501827232,94002,285249,394001
1630501827242,94002,285199,393953
1630501827252,93974,285178,393945
1630501827262,93973,285173,393924
1630501827272,93948,285139,393931
1630501827282,93958,285156,393900
1630501827292,93945,285160,393898
1630501827302,93941,285178,393899
1630501827312,93942,285133,393908
1630501827322,93931,285151,393900
1630501827332,93944,285115,393873
1630501827342,93935,285134,393874
1630501827352,93936,285127,393819
1630501827362,93936,285147,393887
1630501827372,93925,285165,393871
1630501827382,93939,285143,393882
1630501827392,93935,285139,393880
1630501827402,93928,285125,393881
1630501827412,93938,285067,393821
1630501827422,93944,285119,393853
1630501827432,93940,285115,393888
1630501827442,93931,285121,393870
1630501827452,93929,285128,393813
1630501827462,93921,285107,393856
1630501827472,93919,285113,393829
1630501827482,93920,285091,393821
1630501827492,93924,285136,393857
1630501827502,93935,285113,393830
1630501827512,93937,285175,393892
1630501827522,93931,285088,393839
1630501827532,93931,285115,393835
1630501827542,93943,285119,393792
1630501827552,93952,285117,393848
1630501827562,93953,285111,393839
1630501827572,93968,285122,393818
1630501827582,93959,285134,393840
1630501827592,93970,285122,393841
1630501827602,93960,285142,393824
1630501827612,93950,285131,393835
1630501827622,93956,285117,393846
1630501827632,93958,285118,393796
1630501827642,93976,285129,393850
1630501827652,93981,285142,393845
1630501827662,93971,285131,393855
1630501827672,94007,285174,393883
1630501827682,93973,285159,393852
1630501827692,93989,285150,393852
1630501827702,93992,285150,393918
1630501827712,94007,285169,393906
1630501827722,94022,285166,393873
1630501827732,94003,285185,393892
1630501827742,94019,285193,393890
1630501827752,94028,285176,393906
1630501827762,94016,285198,393899
1630501827772,94026,285197,393911
1630501827782,94009,285139,393867
1630501827792,94014,285139,393917
1630501827802,93991,285111,393896
1630501827812,93985,285101,393936
1630501827822,93992,285118,393933
1630501827832,93966,285088,393926
1630501827842,93945,285107,393903
1630501827852,93923,285082,393904
1630501827862,93915,285093,393873
1630501827872,93914,285088,393868
1630501827882,93922,285090,393789
1630501827892,93896,285027,393800
1630501827902,93895,285048,393801
1630501827912,93859,285001,393785
1630501827922,93869,284976,393822
1630501827932,93864,284981,393757
1630501827942,93844,285041,393788
1630501827952,93861,284958,393753
1630501827962,93837,284950,393758
1630501827972,93828,285014,393727
1630501827982,93864,284971,393725
1630501827992,93852,284974,393703
1630501828002,93851,284998,393783
1630501828012,93844,285015,393751
1630501828022,93854,285013,393740
1630501828032,93849,285007,393688
1630501828042,93828,284976,393753
1630501828052,93844,284989,393763
1630501828062,93853,285003,393687
1630501828072,93840,284972,393715
1630501828082,93846,284980,393688
1630501828092,93839,285013,393687
1630501828102,93829,285010,393712
1630501828112,93830,284988,393664
1630501828122,93834,284983,393689
1630501828132,93818,285012,393696
1630501828142,93844,284995,393697
1630501828152,93862,284995,393709
1630501828162,93859,284976,393659
1630501828172,93855,285013,393709
1630501828182,93860,284993,393675
1630501828192,93844,285007,393736
1630501828202,93852,285007,393743
1630501828212,93841,285021,393702
1630501828222,93870,285028,393735
1630501828232,93869,285037,393688
1630501828242,93879,285043,393703
1630501828252,93860,285021,393676
1630501828262,93887,285036,393694
1630501828272,93890,285041,393687
1630501828282,93888,285059,393643
1630501828292,93893,285015,393690
1630501828302,93907,285067,393676
1630501828312,93913,285010,393662
1630501828322,93909,285048,393685
1630501828332,93913,285030,393652
1630501828342,93910,285015,393643
1630501828352,93902,285033,393622
1630501828362,93927,285029,393648
1630501828372,93939,285038,393664
1630501828382,93935,285041,393628
1630501828392,93933,285051,393619
1630501828402,93940,285069,393634
1630501828412,93928,284999,393656
1630501828422,93918,285005,393652
1630501828432,93929,285011,393641
1630501828442,93918,284984,393588
1630501828452,93898,284966,393596
1630501828462,93897,284967,393582
1630501828472,93901,284996,393591
1630501828482,93870,284957,393635
1630501828492,93872,284876,393604
1630501828502,93887,284905,393583
1630501828512,93856,284921,393603
1630501828522,93858,284940,393589
1630501828532,93853,284935,393606
1630501828542,93850,284954,393623
1630501828552,93853,284956,393554
1630501828562,93866,284971,393616
1630501828572,93859,284940,393562
1630501828582,93860,284946,393546
1630501828592,93865,284974,393557
1630501828602,93866,284963,393594
1630501828612,93864,284950,393596
1630501828622,93867,284947,393566
1630501828632,93879,284942,393578
1630501828642,93881,284977,393593
1630501828652,93876,284942,393592
1630501828662,93866,284945,393568
1630501828672,93872,284959,393549
1630501828682,93880,284947,393575
1630501828692,93886,284965,393631
1630501828702,93886,284993,393594
1630501828712,93884,284956,393648
1630501828722,93894,284986,393617
1630501828732,93894,284980,393601
1630501828742,93889,285001,393639
1630501828752,93909,284973,393639
1630501828762,93899,285001,393627
1630501828772,93882,284980,393629
1630501828782,93898,284989,393620
1630501828792,93914,285009,393634
1630501828802,93928,285027,393660
1630501828812,93921,285003,393664
1630501828822,93926,285043,393626
1630501828832,93955,285009,393667
1630501828842,93940,285022,393648
1630501828852,93952,285026,393603
1630501828862,93947,285018,393603
1630501828872,93938,285002,393612
1630501828882,93956,285016,393648
1630501828892,93933,285025,393636
1630501828902,93940,285013,393642
1630501828912,93948,285026,393616
1630501828922,93952,285047,393585
1630501828932,93958,285022,393607
1630501828942,93956,285019,393630
1630501828952,93984,284995,393546
1630501828962,93996,284993,393639
1630501828972,94012,285034,393616
1630501828982,93994,285029,393576
1630501828992,93994,285005,393610
1630501829002,94012,285042,393599
1630501829012,94017,285028,393605
1630501829022,94003,284985,393643
1630501829032,94004,284991,393618
1630501829042,94010,284979,393626
1630501829052,93984,285007,393629
1630501829062,93975,284995,393620
1630501829072,93950,284959,393658
1630501829082,93934,284963,393637
1630501829092,93930,284973,393612
1630501829102,93944,284952,393655
1630501829112,93947,284966,393647
1630501829122,93939,284927,393568
1630501829132,93928,284958,393608
1630501829142,93903,284977,393617
1630501829152,93935,284958,393592
1630501829162,93905,284936,393625
1630501829172,93918,284948,393582
1630501829182,93915,284943,393589
1630501829192,93899,284916,393597
1630501829202,93914,284930,393581
1630501829212,93907,284880,393565
1630501829222,93891,284896,393536
1630501829232,93891,284915,393521
1630501829242,93885,284934,393560
1630501829252,93895,284920,393543
1630501829262,93894,284893,393523
1630501829272,93898,284869,393553
1630501829282,93891,284923,393528
1630501829292,93907,284912,393537
1630501829302,93886,284861,393539
1630501829312,93901,284877,393503
1630501829322,93902,284902,393515
1630501829332,93917,284897,393511
1630501829342,93917,284868,393492
1630501829352,93905,284885,393488
1630501829362,93914,284870,393531
1630501829372,93906,284873,393501
1630501829382,93889,284886,393497
1630501829392,93896,284871,393478
1630501829402,93892,284926,393472
1630501829412,93892,284869,393469
1630501829422,93899,284920,393481
1630501829432,93904,284862,393484
1630501829442,93925,284931,393486
1630501829452,93915,284864,393513
1630501829462,93916,284916,393493
1630501829472,93934,284890,393477
1630501829482,93930,284894,393491
1630501829492,93937,284887,393460
1630501829502,93941,284902,393450
1630501829512,93945,284923,393471
1630501829522,93935,284941,393422
1630501829532,93948,284897,393471
1630501829542,93935,284911,393457
1630501829552,93951,284852,393484
1630501829562,93956,284882,393426
1630501829572,93955,284894,393476
1630501829582,93957,284915,393437
1630501829592,93950,284879,393455
1630501829602,93979,284917,393498
1630501829612,93976,284930,393492
1630501829622,93959,284923,393460
1630501829632,94004,284929,393462
1630501829642,93983,284882,393485
1630501829652,93983,284938,393481
1630501829662,93972,284859,393481
1630501829672,93938,284890,393516
1630501829682,93955,284826,393468
1630501829692,93930,284894,393509
1630501829702,93900,284853,393458
1630501829712,93890,284854,393505
1630501829722,93877,284823,393467
1630501829732,93875,284833,393480
1630501829742,93870,284851,393437
1630501829752,93862,284799,393438
1630501829762,93856,284835,393453
1630501829772,93892,284804,393430
1630501829782,93854,284796,393428
1630501829792,93838,284785,393423
1630501829802,93842,284790,393422
1630501829812,93826,284783,393408
1630501829822,93832,284769,393403
1630501829832,93825,284754,393363
1630501829842,93820,284741,393375
1630501829852,93805,284792,393380
1630501829862,93821,284788,393365
1630501829872,93821,284756,393341
1630501829882,93803,284757,393349
1630501829892,93808,284757,393333
1630501829902,93796,284746,393335
1630501829912,93795,284750,393411
1630501829922,93781,284737,393353
1630501829932,93803,284753,393344
1630501829942,93784,284715,393344
1630501829952,93773,284757,393336
1630501829962,93789,284701,393333
1630501829972,93796,284732,393268
1630501829982,93783,284718,393297
1630501829992,93798,284749,393300
1630501830002,93774,284682,393245
1630501830012,93788,284678,393264
1630501830022,93779,284684,393260
1630501830032,93787,284687,393268
1630501830042,93778,284702,393281
1630501830052,93788,284706,393293
1630501830062,93804,284683,393260
1630501830072,93782,284709,393251
1630501830082,93786,284698,393290
1630501830092,93810,284691,393243
1630501830102,93793,284689,393260
1630501830112,93782,284701,393267
1630501830122,93797,284713,393297
1630501830132,93791,284728,393208
1630501830142,93804,284685,393254
1630501830152,93810,284673,393255
1630501830162,93797,284710,393210
1630501830172,93822,284725,393199
1630501830182,93811,284727,393253
1630501830192,93803,284704,393201
1630501830202,93808,284738,393220
1630501830212,93818,284714,393240
1630501830222,93815,284704,393225
1630501830232,93825,284710,393190
1630501830242,93837,284701,393200
1630501830252,93814,284731,393237
1630501830262,93851,284708,393236
1630501830272,93838,284748,393219
1630501830282,93841,284700,393235
1630501830292,93836,284690,393221
1630501830302,93830,284693,393220
1630501830312,93812,284664,393200
1630501830322,93807,284687,393195
1630501830332,93789,284639,393201
1630501830342,93767,284674,393193
1630501830352,93758,284634,393165
1630501830362,93739,284667,393168
1630501830372,93738,284614,393153
1630501830382,93711,284608,393124
1630501830392,93712,284619,393150
1630501830402,93700,284639,393124
1630501830412,93711,284611,393176
1630501830422,93722,284596,393115
1630501830432,93696,284590,393106
1630501830442,93682,284608,393144
1630501830452,93668,284569,393101
1630501830462,93680,284602,393102
1630501830472,93671,284563,393076
1630501830482,93677,284597,393095
1630501830492,93652,284599,393130
1630501830502,93669,284529,393066
1630501830512,93659,284587,393106
1630501830522,93662,284580,393069
1630501830532,93644,284566,393100
1630501830542,93654,284582,393099
1630501830552,93651,284569,393085
1630501830562,93664,284577,393052
1630501830572,93673,284577,393098
1630501830582,93667,284577,393059
1630501830592,93665,284572,393103
1630501830602,93669,284591,393051
1630501830612,93656,284583,393070
1630501830622,93667,284582,393058
1630501830632,93662,284583,393037
1630501830642,93648,284582,393022
1630501830652,93667,284544,393095
1630501830662,93674,284550,393055
1630501830672,93644,284596,393081
1630501830682,93662,284585,393058
1630501830692,93650,284575,393060
1630501830702,93654,284573,393084
1630501830712,93649,284607,393094
1630501830722,93668,284581,393047
1630501830732,93682,284594,393071
1630501830742,93680,284556,393039
1630501830752,93675,284585,393065
1630501830762,93695,284621,393067
1630501830772,93704,284611,393042
1630501830782,93685,284591,392990
1630501830792,93696,284559,393061
1630501830802,93696,284579,393037
1630501830812,93697,284595,393038
1630501830822,93702,284588,393013
1630501830832,93705,284597,393056
1630501830842,93708,284610,393032
1630501830852,93694,284584,393044
1630501830862,93709,284584,393040
1630501830872,93720,284617,393052
1630501830882,93725,284609,393054
1630501830892,93729,284608,393087
1630501830902,93724,284597,393070
1630501830912,93764,284598,393061
1630501830922,93735,284623,393078
1630501830932,93745,284613,393074
1630501830942,93723,284556,393067
1630501830952,93734,284623,393066
1630501830962,93711,284605,393045
1630501830972,93694,284606,393093
1630501830982,93691,284562,393100
1630501830992,93660,284608,393088
1630501831002,93648,284584,393072
1630501831012,93644,284560,393057
1630501831022,93631,284561,393063
1630501831032,93624,284560,393104
1630501831042,93630,284524,393054
1630501831052,93627,284538,393037
1630501831062,93629,284557,393065
1630501831072,93618,284556,393030
1630501831082,93621,284544,393032
1630501831092,93621,284543,393055
1630501831102,93613,284574,392996
1630501831112,93619,284508,392983
1630501831122,93610,284531,393012
1630501831132,93605,284554,393032
1630501831142,93626,284529,392987
1630501831152,93626,284549,392980
1630501831162,93619,284499,392991
1630501831172,93599,284534,392978
1630501831182,93595,284541,392959
1630501831192,93609,284547,392970
1630501831202,93599,284556,392984
1630501831212,93625,284499,392991
1630501831222,93618,284512,392959
1630501831232,93590,284531,392969
1630501831242,93584,284507,392962
1630501831252,93614,284491,392930
1630501831262,93619,284515,392948
1630501831272,93613,284482,392984
1630501831282,93612,284545,392943
1630501831292,93601,284504,392972
1630501831302,93592,284541,392973
1630501831312,93611,284508,392958
1630501831322,93618,284535,392989
1630501831332,93595,284530,392963
1630501831342,93600,284491,392964
1630501831352,93600,284518,392964
1630501831362,93615,284532,392929
1630501831372,93606,284518,392986
1630501831382,93631,284537,392956
1630501831392,93618,284525,392983
1630501831402,93633,284574,392970
1630501831412,93612,284562,392928
1630501831422,93614,284515,392940
1630501831432,93628,284496,392958
1630501831442,93617,284561,392946
1630501831452,93644,284553,392934
1630501831462,93648,284592,392967
1630501831472,93659,284546,392937
1630501831482,93656,284564,392962
1630501831492,93650,284557,392943
1630501831502,93653,284538,392956
1630501831512,93644,284546,392959
1630501831522,93665,284571,392958
1630501831532,93668,284586,392945
1630501831542,93660,284556,392948
1630501831552,93687,284565,392979
1630501831562,93676,284565,392992
1630501831572,93642,284569,392966
1630501831582,93639,284525,393013
1630501831592,93629,284512,392971
1630501831602,93619,284527,392984
1630501831612,93600,284521,393015
1630501831622,93590,284533,393009
1630501831632,93591,284540,393008
1630501831642,93550,284515,392977
1630501831652,93561,284492,393008
1630501831662,93560,284536,393013
1630501831672,93537,284524,392963
1630501831682,93526,284536,392962
1630501831692,93527,284489,392952
1630501831702,93527,284550,392958
1630501831712,93549,284475,392951
1630501831722,93523,284497,392977
1630501831732,93517,284533,392982
1630501831742,93507,284519,392935
1630501831752,93511,284518,392944
1630501831762,93523,284504,392953
1630501831772,93522,284563,392952
1630501831782,93502,284475,392964
1630501831792,93518,284531,392992
1630501831802,93502,284515,392952
1630501831812,93517,284504,392950
1630501831822,93513,284531,392941
1630501831832,93501,284523,392988
1630501831842,93497,284541,392961
1630501831852,93498,284573,392963
1630501831862,93508,284533,392983
1630501831872,93522,284524,392982
1630501831882,93525,284535,392940
1630501831892,93500,284506,392940
1630501831902,93537,284541,392948
1630501831912,93519,284507,392970
1630501831922,93507,284541,392959
1630501831932,93519,284532,392955
1630501831942,93511,284515,392930
1630501831952,93515,284516,392958
1630501831962,93491,284514,392967
1630501831972,93510,284521,392968
1630501831982,93506,284540,392939
1630501831992,93503,284514,392951
1630501832002,93507,284564,392956
1630501832012,93505,284522,392926
1630501832022,93514,284517,392890
1630501832032,93521,284529,392911
1630501832042,93533,284536,392917
1630501832052,93511,284532,392930
1630501832062,93530,284545,392928
1630501832072,93535,284548,392926
1630501832082,93519,284539,392984
1630501832092,93552,284597,392931
1630501832102,93556,284575,392918
1630501832112,93555,284605,392881
1630501832122,93565,284576,392948
1630501832132,93543,284537,392925
1630501832142,93554,284574,392946
1630501832152,93582,284581,392918
1630501832162,93584,284571,392898
1630501832172,93577,284562,392967
1630501832182,93575,284565,392918
1630501832192,93550,284547,392936
1630501832202,93558,284545,392950
1630501832212,93532,284583,392990
1630501832222,93514,284535,392990
1630501832232,93515,284538,392975
1630501832242,93479,284520,392933
1630501832252,93473,284527,392960
1630501832262,93472,284536,392970
1630501832272,93459,284484,392931
1630501832282,93470,284527,392944
1630501832292,93456,284517,392945
1630501832302,93444,284496,392940
1630501832312,93433,284541,392942
1630501832322,93435,284510,392931
1630501832332,93423,284542,392973
1630501832342,93421,284488,392885
1630501832352,93423,284501,392952
1630501832362,93412,284514,392855
1630501832372,93417,284500,392865
1630501832382,93419,284512,392897
1630501832392,93390,284474,392864
1630501832402,93403,284505,392873
1630501832412,93407,284521,392916
1630501832422,93415,284493,392875
1630501832432,93411,284479,392833
1630501832442,93395,284539,392857
1630501832452,93410,284511,392885
1630501832462,93396,284514,392872
1630501832472,93395,284519,392849
1630501832482,93394,284501,392880
1630501832492,93389,284503,392869
1630501832502,93401,284502,392895
1630501832512,93384,284501,392841
1630501832522,93403,284499,392855
1630501832532,93404,284522,392877
1630501832542,93390,284509,392854
1630501832552,93382,284539,392845
1630501832562,93405,284520,392861
1630501832572,93415,284509,392827
1630501832582,93406,284465,392845
1630501832592,93418,284507,392837
1630501832602,93379,284526,392819
1630501832612,93402,284517,392864
1630501832622,93399,284551,392847
1630501832632,93401,284483,392837
1630501832642,93404,284505,392839
1630501832652,93419,284527,392813
1630501832662,93421,284501,392791
1630501832672,93408,284487,392833
1630501832682,93437,284545,392795
1630501832692,93431,284496,392837
1630501832702,93459,284497,392878
1630501832712,93440,284530,392824
1630501832722,93449,284538,392835
1630501832732,93456,284544,392835
1630501832742,93431,284541,392820
1630501832752,93457,284537,392822
1630501832762,93470,284535,392879
1630501832772,93457,284541,392789
1630501832782,93468,284566,392849
1630501832792,93461,284527,392861
1630501832802,93468,284589,392848
1630501832812,93476,284569,392868
1630501832822,93479,284528,392783
1630501832832,93474,284553,392852
1630501832842,93450,284534,392873
1630501832852,93457,284544,392851
1630501832862,93439,284524,392901
1630501832872,93414,284557,392830
1630501832882,93399,284548,392860
1630501832892,93393,284528,392842
1630501832902,93394,284535,392852
1630501832912,93381,284518,392821
1630501832922,93375,284502,392855
1630501832932,93362,284521,392854
1630501832942,93351,284495,392813
1630501832952,93344,284517,392866
1630501832962,93343,284527,392833
1630501832972,93331,284499,392827
1630501832982,93337,284522,392825
1630501832992,93325,284496,392833
1630501833002,93328,284506,392801
1630501833012,93348,284529,392843
1630501833022,93324,284496,392835
1630501833032,93328,284524,392796
1630501833042,93337,284538,392859
1630501833052,93350,284566,392877
1630501833062,93349,284536,392848
1630501833072,93348,284518,392803
1630501833082,93326,284524,392855
1630501833092,93355,284516,392815
1630501833102,93343,284555,392811
1630501833112,93343,284531,392813
1630501833122,93329,284551,392819
1630501833132,93337,284516,392802
1630501833142,93332,284559,392829
1630501833152,93345,284551,392801
1630501833162,93370,284598,392821
1630501833172,93335,284528,392815
1630501833182,93359,284566,392804
1630501833192,93367,284527,392835
1630501833202,93365,284536,392804
1630501833212,93351,284585,392841
1630501833222,93373,284605,392819
1630501833232,93362,284567,392843
1630501833242,93372,284573,392803
1630501833252,93349,284582,392848
1630501833262,93370,284590,392813
1630501833272,93359,284582,392805
1630501833282,93378,284620,392837
1630501833292,93410,284554,392840
1630501833302,93395,284610,392812
1630501833312,93405,284616,392820
1630501833322,93418,284593,392840
1630501833332,93407,284596,392810
1630501833342,93413,284623,392824
1630501833352,93419,284605,392855
1630501833362,93415,284616,392836
1630501833372,93433,284630,392807
1630501833382,93429,284618,392822
1630501833392,93444,284627,392830
1630501833402,93434,284684,392885
1630501833412,93449,284680,392856
1630501833422,93461,284658,392799
1630501833432,93455,284659,392810
1630501833442,93462,284662,392833
1630501833452,93475,284648,392839
1630501833462,93460,284649,392874
1630501833472,93446,284669,392901
1630501833482,93448,284601,392865
1630501833492,93450,284627,392899
1630501833502,93412,284610,392894
1630501833512,93414,284619,392911
1630501833522,93399,284610,392859
1630501833532,93414,284636,392885
1630501833542,93402,284593,392865
1630501833552,93399,284605,392829
1630501833562,93395,284599,392878
1630501833572,93382,284633,392856
1630501833582,93388,284597,392851
1630501833592,93391,284615,392854
1630501833602,93370,284634,392871
1630501833612,93370,284583,392834
1630501833622,93355,284602,392862
1630501833632,93367,284624,392834
1630501833642,93371,284596,392812
1630501833652,93367,284574,392841
1630501833662,93371,284622,392834
1630501833672,93360,284564,392799
1630501833682,93374,284600,392812
1630501833692,93399,284568,392823
1630501833702,93378,284604,392823
1630501833712,93391,284588,392835
1630501833722,93388,284597,392817
1630501833732,93373,284575,392775
1630501833742,93375,284601,392824
1630501833752,93374,284613,392849
1630501833762,93371,284595,392806
1630501833772,93384,284549,392852
1630501833782,93371,284606,392823
1630501833792,93376,284620,392841
1630501833802,93403,284607,392796
1630501833812,93413,284603,392815
1630501833822,93388,284638,392821
1630501833832,93402,284608,392808
1630501833842,93399,284625,392846
1630501833852,93411,284637,392828
1630501833862,93410,284612,392866
1630501833872,93409,284632,392818
1630501833882,93422,284609,392832
1630501833892,93424,284645,392805
1630501833902,93418,284625,392798
1630501833912,93412,284577,392771
1630501833922,93401,284641,392801
1630501833932,93413,284613,392791
1630501833942,93419,284630,392765
1630501833952,93436,284620,392788
1630501833962,93434,284623,392785
1630501833972,93440,284649,392757
1630501833982,93436,284622,392782
1630501833992,93439,284654,392779
1630501834002,93461,284641,392763
1630501834012,93456,284668,392720
1630501834022,93481,284642,392736
1630501834032,93485,284667,392777
1630501834042,93506,284655,392768
1630501834052,93494,284658,392787
1630501834062,93505,284695,392791
1630501834072,93507,284688,392818
1630501834082,93481,284668,392835
1630501834092,93480,284614,392808
1630501834102,93484,284659,392811
1630501834112,93464,284591,392860
1630501834122,93462,284624,392864
1630501834132,93472,284597,392847
1630501834142,93445,284603,392795
1630501834152,93440,284581,392822
1630501834162,93435,284609,392840
1630501834172,93417,284604,392775
1630501834182,93402,284618,392806
1630501834192,93402,284565,392793
1630501834202,93418,284613,392789
1630501834212,93399,284596,392808
1630501834222,93388,284614,392761
1630501834232,93393,284633,392812
1630501834242,93391,284629,392796
1630501834252,93388,284588,392832
1630501834262,93385,284576,392800
1630501834272,93384,284623,392834
1630501834282,93384,284645,392801
1630501834292,93395,284646,392865
1630501834302,93410,284634,392827
1630501834312,93390,284662,392802
1630501834322,93396,284631,392849
1630501834332,93390,284668,392836
1630501834342,93393,284695,392839
1630501834352,93419,284685,392869
1630501834362,93407,284656,392853
1630501834372,93393,284670,392877
1630501834382,93404,284669,392856
1630501834392,93396,284681,392910
1630501834402,93390,284716,392875
1630501834412,93394,284666,392842
1630501834422,93380,284663,392845
1630501834432,93393,284674,392847
1630501834442,93395,284696,392876
1630501834452,93400,284704,392890
1630501834462,93415,284697,392880
1630501834472,93403,284693,392885
1630501834482,93408,284703,392841
1630501834492,93412,284695,392807
1630501834502,93403,284724,392826
1630501834512,93432,284698,392855
1630501834522,93422,284676,392805
1630501834532,93438,284680,392867
1630501834542,93434,284751,392845
1630501834552,93440,284729,392844
1630501834562,93446,284708,392821
1630501834572,93443,284735,392822
1630501834582,93441,284712,392793
1630501834592,93449,284721,392830
1630501834602,93451,284706,392809
1630501834612,93456,284709,392804
1630501834622,93463,284708,392805
1630501834632,93467,284743,392828
1630501834642,93495,284741,392800
1630501834652,93494,284758,392775
1630501834662,93511,284753,392831
1630501834672,93509,284739,392829
1630501834682,93514,284731,392811
1630501834692,93521,284722,392806
1630501834702,93532,284736,392823
1630501834712,93506,284752,392837
1630501834722,93523,284722,392832
1630501834732,93513,284709,392839
1630501834742,93526,284731,392869
1630501834752,93511,284698,392860
1630501834762,93500,284706,392905
1630501834772,93462,284703,392852
1630501834782,93447,284735,392853
1630501834792,93462,284698,392867
1630501834802,93451,284687,392847
1630501834812,93457,284689,392829
1630501834822,93446,284716,392816
1630501834832,93437,284673,392835
1630501834842,93443,284682,392816
1630501834852,93426,284698,392851
1630501834862,93424,284629,392842
1630501834872,93433,284671,392839
1630501834882,93415,284715,392777
1630501834892,93420,284668,392808
1630501834902,93398,284671,392810
1630501834912,93409,284650,392806
1630501834922,93414,284655,392799
1630501834932,93405,284682,392817
1630501834942,93435,284688,392811
1630501834952,93419,284672,392875
1630501834962,93412,284677,392867
1630501834972,93446,284649,392804
1630501834982,93429,284686,392781
1630501834992,93445,284677,392817
1630501835002,93448,284649,392834
1630501835012,93450,284663,392786
1630501835022,93453,284666,392828
1630501835032,93442,284675,392811
1630501835042,93425,284698,392799
1630501835052,93452,284664,392825
1630501835062,93445,284697,392803
1630501835072,93426,284676,392801
1630501835082,93429,284668,392813
1630501835092,93444,284691,392779
1630501835102,93466,284626,392801
1630501835112,93476,284683,392786
1630501835122,93469,284645,392745
1630501835132,93442,284692,392781
1630501835142,93483,284671,392807
1630501835152,93492,284687,392799
1630501835162,93478,284677,392792
1630501835172,93471,284694,392790
1630501835182,93470,284701,392790
1630501835192,93487,284700,392741
1630501835202,93480,284705,392797
1630501835212,93491,284697,392783
1630501835222,93491,284693,392774
1630501835232,93502,284693,392774
1630501835242,93509,284666,392796
1630501835252,93521,284705,392791
1630501835262,93523,284731,392822
1630501835272,93523,284736,392750
1630501835282,93548,284742,392808
1630501835292,93552,284763,392791
1630501835302,93547,284779,392776
1630501835312,93576,284730,392778
1630501835322,93571,284788,392827
1630501835332,93579,284773,392815
1630501835342,93577,284801,392842
1630501835352,93585,284790,392854
1630501835362,93575,284792,392842
1630501835372,93592,284772,392831
1630501835382,93572,284743,392860
1630501835392,93547,284738,392887
1630501835402,93551,284742,392873
1630501835412,93541,284781,392886
1630501835422,93532,284763,392894
1630501835432,93514,284743,392820
1630501835442,93513,284787,392863
1630501835452,93524,284778,392851
1630501835462,93514,284711,392839
1630501835472,93510,284710,392853
1630501835482,93509,284767,392848
1630501835492,93497,284764,392854
1630501835502,93473,284743,392858
1630501835512,93508,284768,392891
1630501835522,93499,284747,392875
1630501835532,93483,284760,392887
1630501835542,93483,284742,392836
1630501835552,93502,284767,392847
1630501835562,93497,284738,392910
1630501835572,93488,284730,392886
1630501835582,93482,284772,392849
1630501835592,93484,284738,392879
1630501835602,93512,284781,392842
1630501835612,93526,284748,392853
1630501835622,93507,284746,392865
1630501835632,93524,284764,392880
1630501835642,93522,284767,392876
1630501835652,93509,284736,392888
1630501835662,93505,284795,392890
1630501835672,93508,284766,392884
1630501835682,93527,284754,392842
1630501835692,93511,284772,392862
1630501835702,93512,284757,392851
1630501835712,93517,284748,392862
1630501835722,93519,284784,392856
1630501835732,93527,284772,392868
1630501835742,93526,284781,392867
1630501835752,93547,284797,392878
1630501835762,93554,284805,392867
1630501835772,93559,284783,392888
1630501835782,93555,284765,392850
1630501835792,93578,284796,392854
1630501835802,93575,284808,392861
1630501835812,93573,284824,392898
1630501835822,93589,284786,392877
1630501835832,93584,284789,392885
1630501835842,93593,284856,392909
1630501835852,93609,284807,392871
1630501835862,93588,284801,392848
1630501835872,93585,284822,392891
1630501835882,93606,284812,392889
1630501835892,93618,284806,392901
1630501835902,93608,284849,392859
1630501835912,93641,284872,392914
1630501835922,93630,284845,392888
1630501835932,93655,284851,392913
1630501835942,93644,284871,392905
1630501835952,93647,284884,392911
1630501835962,93655,284837,392906
1630501835972,93688,284867,392902
1630501835982,93686,284862,392941
1630501835992,93696,284862,392934
1630501836002,93698,284868,392897
1630501836012,93664,284862,392925
1630501836022,93682,284846,392929
1630501836032,93689,284857,392929
1630501836042,93676,284837,392921
1630501836052,93672,284832,392935
1630501836062,93657,284814,392919
1630501836072,93647,284810,392942
1630501836082,93641,284842,392914
1630501836092,93646,284845,392891
1630501836102,93651,284807,392922
1630501836112,93623,284834,392957
1630501836122,93617,284794,392929
1630501836132,93625,284806,392912
1630501836142,93616,284818,392926
1630501836152,93618,284785,392935
1630501836162,93627,284826,392918
1630501836172,93622,284787,392925
1630501836182,93591,284805,392903
1630501836192,93595,284803,392907
1630501836202,93599,284818,392895
1630501836212,93627,284776,392888
1630501836222,93620,284795,392872
1630501836232,93622,284809,392896
1630501836242,93634,284833,392879
1630501836252,93647,284811,392896
1630501836262,93631,284794,392892
1630501836272,93623,284785,392862
1630501836282,93642,284785,392882
1630501836292,93631,284781,392895
1630501836302,93642,284810,392863
1630501836312,93643,284821,392887
1630501836322,93626,284812,392903
1630501836332,93648,284812,392849
1630501836342,93646,284800,392905
1630501836352,93643,284824,392887
1630501836362,93649,284782,392872
1630501836372,93658,284818,392896
1630501836382,93660,284785,392863
1630501836392,93661,284763,392886
1630501836402,93653,284774,392850
1630501836412,93663,284790,392851
1630501836422,93674,284764,392880
1630501836432,93669,284790,392880
1630501836442,93676,284785,392848
1630501836452,93682,284815,392859
1630501836462,93691,284850,392888
1630501836472,93707,284807,392872
1630501836482,93682,284807,392864
1630501836492,93692,284820,392873
1630501836502,93685,284803,392880
1630501836512,93692,284851,392901
1630501836522,93685,284819,392884
1630501836532,93701,284835,392841
1630501836542,93708,284834,392843
1630501836552,93715,284825,392866
1630501836562,93738,284877,392892
1630501836572,93739,284813,392852
1630501836582,93731,284838,392885
1630501836592,93735,284869,392883
1630501836602,93738,284811,392882
1630501836612,93743,284860,392893
1630501836622,93760,284864,392870
1630501836632,93739,284837,392898
1630501836642,93759,284838,392901
1630501836652,93767,284859,392908
1630501836662,93747,284874,392912
1630501836672,93746,284832,392912
1630501836682,93733,284822,392951
1630501836692,93713,284839,392863
1630501836702,93702,284785,392887
1630501836712,93687,284824,392940
1630501836722,93693,284822,392894
1630501836732,93701,284791,392884
1630501836742,93667,284823,392865
1630501836752,93672,284803,392846
1630501836762,93680,284791,392868
1630501836772,93664,284805,392886
1630501836782,93662,284826,392868
1630501836792,93667,284831,392883
1630501836802,93649,284756,392861
1630501836812,93655,284753,392867
1630501836822,93629,284778,392822
1630501836832,93627,284802,392794
1630501836842,93624,284782,392778
1630501836852,93636,284777,392850
1630501836862,93631,284748,392801
1630501836872,93625,284769,392807
1630501836882,93659,284780,392802
1630501836892,93634,284747,392790
1630501836902,93632,284764,392790
1630501836912,93646,284733,392800
1630501836922,93634,284733,392787
1630501836932,93644,284774,392816
1630501836942,93648,284733,392785
1630501836952,93626,284762,392851
1630501836962,93638,284734,392768
1630501836972,93623,284716,392799
1630501836982,93615,284732,392746
1630501836992,93616,284737,392741
1630501837002,93605,284699,392721
1630501837012,93613,284720,392750
1630501837022,93613,284745,392712
1630501837032,93621,284724,392693
1630501837042,93618,284728,392744
1630501837052,93627,284748,392745
1630501837062,93608,284704,392687
1630501837072,93614,284674,392660
1630501837082,93616,284652,392714
1630501837092,93618,284709,392690
1630501837102,93613,284724,392667
1630501837112,93629,284744,392649
1630501837122,93638,284699,392673
1630501837132,93607,284703,392636
1630501837142,93619,284705,392620
1630501837152,93629,284700,392630
1630501837162,93627,284701,392646
1630501837172,93622,284699,392651
1630501837182,93623,284664,392598
1630501837192,93624,284744,392618
1630501837202,93644,284694,392632
1630501837212,93655,284699,392594
1630501837222,93639,284683,392605
1630501837232,93639,284718,392610
1630501837242,93650,284722,392573
1630501837252,93630,284676,392565
1630501837262,93661,284724,392568
1630501837272,93656,284690,392572
1630501837282,93657,284705,392594
1630501837292,93648,284689,392576
1630501837302,93652,284686,392575
1630501837312,93638,284672,392553
1630501837322,93614,284627,392557
1630501837332,93597,284630,392609
1630501837342,93588,284648,392546
1630501837352,93570,284640,392607
1630501837362,93596,284610,392647
1630501837372,93572,284666,392653
1630501837382,93553,284694,392645
1630501837392,93538,284663,392716
1630501837402,93541,284703,392696
1630501837412,93553,284702,392757
1630501837422,93546,284746,392777
1630501837432,93524,284760,392843
1630501837442,93521,284785,392831
1630501837452,93541,284810,392855
1630501837462,93515,284794,392898
1630501837472,93545,284829,392910
1630501837482,93533,284848,392906
1630501837492,93536,284875,392970
1630501837502,93524,284851,392931
1630501837512,93527,284840,392922
1630501837522,93531,284867,392918
1630501837532,93528,284837,392925
1630501837542,93525,284862,392919
1630501837552,93514,284838,392967
1630501837562,93494,284863,392976
1630501837572,93516,284882,392972
1630501837582,93519,284860,392988
1630501837592,93505,284864,393019
1630501837602,93485,284898,392957
1630501837612,93496,284833,393007
1630501837622,93508,284918,392964
1630501837632,93488,284899,393041
1630501837642,93494,284935,393040
1630501837652,93503,284887,393006
1630501837662,93479,284905,393018
1630501837672,93482,284949,393040
1630501837682,93472,284937,393030
1630501837692,93488,284918,393038
1630501837702,93487,284927,393057
1630501837712,93472,284949,393062
1630501837722,93474,284951,393018
1630501837732,93458,284904,393011
1630501837742,93477,284936,392998
1630501837752,93477,284992,393007
1630501837762,93459,284970,393051
1630501837772,93475,284973,393026
1630501837782,93488,284909,393027
1630501837792,93462,284948,392985
1630501837802,93483,284927,393038
1630501837812,93478,284983,392997
1630501837822,93470,285025,393026
1630501837832,93475,284980,393015
1630501837842,93477,284999,393038
1630501837852,93495,285036,393004
1630501837862,93484,285009,393056
1630501837872,93498,284987,393064
1630501837882,93515,285032,393038
1630501837892,93504,285059,393021
1630501837902,93510,285056,393040
1630501837912,93511,285074,393053
1630501837922,93510,285049,393027
1630501837932,93504,285057,393044
1630501837942,93525,285017,393049
1630501837952,93512,285024,393056
1630501837962,93493,285010,393083
1630501837972,93475,285025,393041
1630501837982,93452,284977,393005
1630501837992,93456,284997,393039
1630501838002,93441,285012,393011
1630501838012,93434,284973,392986
1630501838022,93421,285006,392959
1630501838032,93401,284945,392950
1630501838042,93404,284933,392960
1630501838052,93408,284951,392920
1630501838062,93386,284918,392916
1630501838072,93379,284920,392887
1630501838082,93375,284887,392917
1630501838092,93371,284897,392919
1630501838102,93372,284905,392877
1630501838112,93375,284877,392855
1630501838122,93385,284885,392891
1630501838132,93381,284849,392862
1630501838142,93386,284892,392880
1630501838152,93377,284839,392851
1630501838162,93379,284873,392832
1630501838172,93383,284840,392849
1630501838182,93377,284850,392832
1630501838192,93375,284861,392809
1630501838202,93385,284856,392807
1630501838212,93395,284824,392780
1630501838222,93365,284842,392795
1630501838232,93362,284829,392797
1630501838242,93383,284835,392790
1630501838252,93361,284851,392772
1630501838262,93362,284843,392769
1630501838272,93343,284836,392791
1630501838282,93359,284839,392835
1630501838292,93372,284877,392847
1630501838302,93373,284875,392798
1630501838312,93370,284863,392820
1630501838322,93377,284877,392798
1630501838332,93373,284855,392762
1630501838342,93358,284813,392815
1630501838352,93375,284852,392823
1630501838362,93372,284852,392751
1630501838372,93369,284838,392729
1630501838382,93374,284801,392716
1630501838392,93383,284788,392691
1630501838402,93391,284788,392713
1630501838412,93364,284754,392685
1630501838422,93358,284755,392636
1630501838432,93359,284790,392610
1630501838442,93380,284748,392647
1630501838452,93351,284761,392586
1630501838462,93347,284762,392567
1630501838472,93351,284744,392597
1630501838482,93350,284760,392635
1630501838492,93355,284760,392559
1630501838502,93385,284729,392607
1630501838512,93396,284772,392616
1630501838522,93390,284753,392632
1630501838532,93394,284806,392591
1630501838542,93393,284755,392602
1630501838552,93408,284772,392608
1630501838562,93418,284785,392644
1630501838572,93409,284798,392668
1630501838582,93418,284806,392648
1630501838592,93415,284841,392672
1630501838602,93394,284821,392679
1630501838612,93377,284830,392659
1630501838622,93353,284855,392721
1630501838632,93352,284796,392683
1630501838642,93342,284795,392694
1630501838652,93357,284812,392699
1630501838662,93327,284795,392729
1630501838672,93336,284807,392728
1630501838682,93304,284823,392746
1630501838692,93312,284818,392799
1630501838702,93311,284795,392755
1630501838712,93289,284821,392752
1630501838722,93283,284864,392853
1630501838732,93289,284888,392801
1630501838742,93291,284896,392853
1630501838752,93282,284965,392870
1630501838762,93287,284916,392903
1630501838772,93267,284934,392880
1630501838782,93285,284945,392952
1630501838792,93279,284974,392906
1630501838802,93288,284993,392903
1630501838812,93296,284960,392950
1630501838822,93269,284951,392940
1630501838832,93283,284947,392907
1630501838842,93292,284950,392890
1630501838852,93292,284960,392926
1630501838862,93271,284935,392899
1630501838872,93258,284897,392854
1630501838882,93261,284879,392833
1630501838892,93262,284831,392800
1630501838902,93245,284841,392779
1630501838912,93255,284826,392763
1630501838922,93245,284852,392703
1630501838932,93247,284791,392687
1630501838942,93242,284787,392705
1630501838952,93218,284764,392704
1630501838962,93237,284812,392668
1630501838972,93221,284803,392710
1630501838982,93227,284802,392772
1630501838992,93245,284823,392746
1630501839002,93234,284832,392749
1630501839012,93225,284829,392759
1630501839022,93209,284880,392753
1630501839032,93232,284893,392751
1630501839042,93228,284846,392719
1630501839052,93222,284914,392732
1630501839062,93233,284890,392695
1630501839072,93212,284884,392756
1630501839082,93213,284819,392671
1630501839092,93202,284784,392620
1630501839102,93166,284773,392547
1630501839112,93167,284728,392562
1630501839122,93148,284684,392517
1630501839132,93159,284637,392485
1630501839142,93179,284705,392544
1630501839152,93191,284717,392606
1630501839162,93190,284714,392634
1630501839172,93197,284743,392652
1630501839182,93214,284772,392648
1630501839192,93241,284827,392691
1630501839202,93206,284865,392766
1630501839212,93218,284846,392824
1630501839222,93239,284866,392831
1630501839232,93219,284911,392879
1630501839242,93218,284861,392859
1630501839252,93209,284971,392860
1630501839262,93178,284955,392832
1630501839272,93167,284906,392833
1630501839282,93153,284919,392848
1630501839292,93135,284914,392877
1630501839302,93156,284907,392827
1630501839312,93141,284918,392839
1630501839322,93145,284910,392854
1630501839332,93123,284948,392934
1630501839342,93108,284960,392893
1630501839352,93128,284981,392929
1630501839362,93108,284998,392929
1630501839372,93129,285023,393006
1630501839382,93128,285020,392969
1630501839392,93133,285031,392996
1630501839402,93135,285044,393043
1630501839412,93123,285018,393052
1630501839422,93130,285136,393037
1630501839432,93121,285099,393056
1630501839442,93144,285138,393106
1630501839452,93131,285169,393133
1630501839462,93142,285183,393158
1630501839472,93138,285148,393190
1630501839482,93157,285164,393188
1630501839492,93149,285180,393163
1630501839502,93146,285186,393162
1630501839512,93144,285132,393174
1630501839522,93151,285167,393135
1630501839532,93145,285156,393156
1630501839542,93126,285143,393125
1630501839552,93135,285128,393102
1630501839562,93138,285151,393126
1630501839572,93145,285162,393107
1630501839582,93132,285164,393135
1630501839592,93131,285187,393144
1630501839602,93130,285192,393164
1630501839612,93138,285217,393204
1630501839622,93135,285278,393224
1630501839632,93159,285253,393233
1630501839642,93168,285298,393255
1630501839652,93171,285284,393245
1630501839662,93180,285315,393260
1630501839672,93162,285332,393261
1630501839682,93167,285338,393257
1630501839692,93150,285324,393269
1630501839702,93160,285334,393217
1630501839712,93177,285352,393257
1630501839722,93178,285337,393200
1630501839732,93197,285342,393203
1630501839742,93178,285327,393229
1630501839752,93200,285357,393218
1630501839762,93195,285327,393175
1630501839772,93185,285349,393192
1630501839782,93202,285350,393161
1630501839792,93215,285351,393191
1630501839802,93220,285333,393177
1630501839812,93241,285331,393161
1630501839822,93252,285369,393216
1630501839832,93255,285357,393241
1630501839842,93246,285338,393211
1630501839852,93231,285312,393241
1630501839862,93226,285325,393258
1630501839872,93190,285297,393256
1630501839882,93204,285284,393244
1630501839892,93179,285293,393236
1630501839902,93166,285281,393216
1630501839912,93124,285278,393167
1630501839922,93117,285285,393177
1630501839932,93106,285252,393182
1630501839942,93108,285247,393137
1630501839952,93098,285233,393156
1630501839962,93082,285248,393110
1630501839972,93099,285219,393090
1630501839982,93074,285207,393126
1630501839992,93081,285188,393114
1630501840002,93082,285236,393115
1630501840012,93098,285222,393141
1630501840022,93058,285241,393146
1630501840032,93088,285223,393112
1630501840042,93101,285237,393159
1630501840052,93089,285255,393178
1630501840062,93095,285268,393144
1630501840072,93078,285257,393165
1630501840082,93079,285253,393137
1630501840092,93076,285320,393137
1630501840102,93078,285296,393135
1630501840112,93067,285275,393111
1630501840122,93098,285319,393183
1630501840132,93096,285309,393206
1630501840142,93096,285307,393181
1630501840152,93075,285369,393234
1630501840162,93098,285341,393199
1630501840172,93073,285354,393181
1630501840182,93093,285363,393201
1630501840192,93082,285345,393213
1630501840202,93095,285337,393227
1630501840212,93102,285370,393195
1630501840222,93104,285384,393228
1630501840232,93095,285356,393224
1630501840242,93102,285409,393239
1630501840252,93105,285374,393260
1630501840262,93095,285366,393257
1630501840272,93100,285406,393265
1630501840282,93079,285371,393241
1630501840292,93100,285355,393217
1630501840302,93091,285332,393183
1630501840312,93071,285314,393156
1630501840322,93085,285365,393126
1630501840332,93055,285323,393129
1630501840342,93093,285377,393179
1630501840352,93077,285332,393151
1630501840362,93074,285358,393171
1630501840372,93065,285355,393124
1630501840382,93068,285293,393152
1630501840392,93056,285331,393103
1630501840402,93052,285344,393087
1630501840412,93065,285313,393116
1630501840422,93074,285346,393165
1630501840432,93086,285421,393201
1630501840442,93107,285437,393227
1630501840452,93122,285457,393320
1630501840462,93098,285450,393374
1630501840472,93118,285489,393386
1630501840482,93112,285492,393442
1630501840492,93117,285456,393441
1630501840502,93086,285476,393429
1630501840512,93065,285443,393389
1630501840522,93044,285410,393346
1630501840532,93012,285387,393289
1630501840542,92960,285344,393196
1630501840552,92923,285264,393062
1630501840562,92894,285196,393007
1630501840572,92843,285152,392879
1630501840582,92822,285067,392823
1630501840592,92782,285025,392688
1630501840602,92734,284959,392561
1630501840612,92679,284886,392432
1630501840622,92661,284796,392315
1630501840632,92640,284753,392184
1630501840642,92645,284725,392220
1630501840652,92650,284742,392240
1630501840662,92652,284768,392228
1630501840672,92645,284751,392285
1630501840682,92639,284737,392254
1630501840692,92643,284689,392235
1630501840702,92622,284728,392273
1630501840712,92649,284721,392285
1630501840722,92674,284788,392375
1630501840732,92685,284875,392490
1630501840742,92709,284881,392569
1630501840752,92739,284973,392699
1630501840762,92743,284994,392751
1630501840772,92758,284985,392779
1630501840782,92755,284983,392732
1630501840792,92755,284996,392771
1630501840802,92777,285005,392828
1630501840812,92772,285012,392801
1630501840822,92781,285036,392848
1630501840832,92787,284990,392844
1630501840842,92751,284948,392853
1630501840852,92739,284847,392698
1630501840862,92696,284754,392603
1630501840872,92672,284703,392445
1630501840882,92648,284597,392360
1630501840892,92635,284596,392300
1630501840902,92645,284516,392264
1630501840912,92621,284495,392238
1630501840922,92595,284460,392193
1630501840932,92595,284432,392155
1630501840942,92571,284334,392083
1630501840952,92552,284357,392068
1630501840962,92572,284340,392038
1630501840972,92571,284292,392025
1630501840982,92584,284297,392014
1630501840992,92569,284326,392141
1630501841002,92595,284333,392172
1630501841012,92601,284402,392255
1630501841022,92582,284404,392257
1630501841032,92580,284438,392272
1630501841042,92591,284402,392325
1630501841052,92590,284367,392271
1630501841062,92567,284332,392253
1630501841072,92533,284296,392217
1630501841082,92496,284240,392186
1630501841092,92472,284157,392167
1630501841102,92423,284151,392065
1630501841112,92401,284091,391990
1630501841122,92351,284074,391988
1630501841132,92335,284047,391936
1630501841142,92321,284048,391943
1630501841152,92310,284027,391954
1630501841162,92309,284062,391951
1630501841172,92286,284131,391986
1630501841182,92300,284107,392040
1630501841192,92283,284099,392029
1630501841202,92271,284143,392058
1630501841212,92278,284176,392074
1630501841222,92281,284183,392093
1630501841232,92280,284263,392139
1630501841242,92278,284241,392134
1630501841252,92276,284289,392139
1630501841262,92252,284290,392113
1630501841272,92210,284302,392064
1630501841282,92199,284284,391958
1630501841292,92195,284238,391921
1630501841302,92186,284303,391941
1630501841312,92188,284251,391846
1630501841322,92182,284284,391921
1630501841332,92181,284287,391974
1630501841342,92160,284339,391977
1630501841352,92169,284281,391880
1630501841362,92156,284302,391943
1630501841372,92138,284291,391882
1630501841382,92148,284284,391919
1630501841392,92152,284248,391882
1630501841402,92160,284257,391908
1630501841412,92183,284308,391918
1630501841422,92171,284297,391942
1630501841432,92162,284309,391915
1630501841442,92198,284363,391962
1630501841452,92204,284346,391940
1630501841462,92200,284391,391969
1630501841472,92220,284400,391989
1630501841482,92240,284448,391966
1630501841492,92273,284462,392017
1630501841502,92287,284472,391993
1630501841512,92282,284498,392034
1630501841522,92328,284528,392112
1630501841532,92358,284590,392158
1630501841542,92409,284643,392258
1630501841552,92443,284709,392258
1630501841562,92463,284798,392307
1630501841572,92466,284814,392347
1630501841582,92493,284857,392380
1630501841592,92519,284852,392346
1630501841602,92536,284913,392286
1630501841612,92541,284917,392306
1630501841622,92555,284865,392303
1630501841632,92572,284850,392313
1630501841642,92578,284871,392260
1630501841652,92557,284838,392258
1630501841662,92537,284797,392211
1630501841672,92542,284809,392233
1630501841682,92529,284782,392266
1630501841692,92518,284785,392229
1630501841702,92513,284757,392226
1630501841712,92499,284788,392198
1630501841722,92497,284786,392202
1630501841732,92496,284808,392220
1630501841742,92510,284790,392224
1630501841752,92538,284809,392216
1630501841762,92513,284768,392198
1630501841772,92533,284819,392137
1630501841782,92522,284809,392179
1630501841792,92536,284840,392208
1630501841802,92543,284902,392207
1630501841812,92531,284885,392212
1630501841822,92539,284937,392256
1630501841832,92540,284982,392266
1630501841842,92570,285035,392356
1630501841852,92583,285082,392344
1630501841862,92589,285076,392381
1630501841872,92611,285134,392394
1630501841882,92628,285153,392431
1630501841892,92641,285160,392434
1630501841902,92669,285196,392477
1630501841912,92695,285232,392477
1630501841922,92697,285286,392541
1630501841932,92696,285257,392575
1630501841942,92715,285310,392528
1630501841952,92744,285295,392528
1630501841962,92737,285293,392591
1630501841972,92755,285313,392565
1630501841982,92726,285318,392609
1630501841992,92753,285336,392556
1630501842002,92745,285295,392527
1630501842012,92745,285314,392517
1630501842022,92735,285290,392463
1630501842032,92747,285256,392411
1630501842042,92747,285244,392425
1630501842052,92759,285226,392345
1630501842062,92771,285207,392317
1630501842072,92738,285190,392310
1630501842082,92782,285226,392271
1630501842092,92769,285148,392270
1630501842102,92781,285177,392211
1630501842112,92773,285204,392173
1630501842122,92788,285227,392181
1630501842132,92799,285236,392125
1630501842142,92827,285270,392170
1630501842152,92843,285268,392190
1630501842162,92859,285325,392211
1630501842172,92870,285379,392229
1630501842182,92886,285429,392246
1630501842192,92909,285441,392308
1630501842202,92933,285446,392272
1630501842212,92947,285486,392329
1630501842222,92992,285549,392381
1630501842232,92981,285533,392453
1630501842242,92988,285581,392479
1630501842252,92992,285634,392520
1630501842262,92985,285632,392531
1630501842272,92961,285645,392562
1630501842282,92973,285610,392529
1630501842292,92969,285629,392554
1630501842302,92976,285616,392563
1630501842312,92980,285652,392589
1630501842322,92969,285695,392593
1630501842332,92957,285682,392611
1630501842342,93002,285676,392587
1630501842352,92991,285732,392603
1630501842362,92978,285744,392620
1630501842372,92977,285769,392652
1630501842382,93010,285829,392710
1630501842392,93006,285840,392690
1630501842402,93039,285907,392744
1630501842412,93046,285996,392784
1630501842422,93110,286047,392851
1630501842432,93142,286126,392991
1630501842442,93163,286188,393044
1630501842452,93183,286297,393129
1630501842462,93189,286307,393222
1630501842472,93218,286374,393239
1630501842482,93227,286407,393311
1630501842492,93241,286410,393398
1630501842502,93254,286447,393391
1630501842512,93261,286487,393454
1630501842522,93264,286482,393476
1630501842532,93267,286498,393484
1630501842542,93277,286463,393554
1630501842552,93296,286475,393502
1630501842562,93305,286469,393513
1630501842572,93298,286485,393574
1630501842582,93295,286449,393535
1630501842592,93287,286436,393451
1630501842602,93283,286378,393370
1630501842612,93285,286359,393382
1630501842622,93282,286349,393324
1630501842632,93290,286298,393310
1630501842642,93306,286294,393306
1630501842652,93305,286308,393273
1630501842662,93318,286294,393308
1630501842672,93305,286284,393305
1630501842682,93298,286284,393360
1630501842692,93308,286300,393292
1630501842702,93320,286293,393248
1630501842712,93334,286293,393225
1630501842722,93339,286307,393198
1630501842732,93343,286289,393138
1630501842742,93343,286262,393095
1630501842752,93359,286224,393091
1630501842762,93369,286214,393071
1630501842772,93368,286189,393012
1630501842782,93373,286154,393025
1630501842792,93361,286140,392988
1630501842802,93367,286130,393047
1630501842812,93363,286093,393025
1630501842822,93347,286027,392982
1630501842832,93342,286037,393010
1630501842842,93341,286038,393061
1630501842852,93330,286058,393046
1630501842862,93331,286004,393049
1630501842872,93327,285997,393069
1630501842882,93345,286034,393079
1630501842892,93354,286061,393098
1630501842902,93343,286041,393098
1630501842912,93335,286043,393077
1630501842922,93331,285970,393141
1630501842932,93324,286004,393103
1630501842942,93306,285973,393118
1630501842952,93334,285972,393103
1630501842962,93327,285928,393121
1630501842972,93307,285923,393099
1630501842982,93295,285917,393070
1630501842992,93285,285856,392994
1630501843002,93303,285868,393006
1630501843012,93290,285843,392920
1630501843022,93281,285833,392929
1630501843032,93278,285843,392865
1630501843042,93265,285744,392802
1630501843052,93252,285772,392800
1630501843062,93265,285742,392750
1630501843072,93274,285729,392693
1630501843082,93248,285676,392643
1630501843092,93237,285646,392585
1630501843102,93259,285581,392596
1630501843112,93258,285614,392555
1630501843122,93252,285611,392531
1630501843132,93263,285572,392511
1630501843142,93254,285588,392499
1630501843152,93250,285571,392459
1630501843162,93250,285569,392459
1630501843172,93261,285558,392503
1630501843182,93269,285570,392456
1630501843192,93276,285559,392434
1630501843202,93267,285541,392451
1630501843212,93272,285532,392452
1630501843222,93288,285516,392414
1630501843232,93291,285517,392404
1630501843242,93318,285563,392410
1630501843252,93336,285561,392419
1630501843262,93351,285595,392438
1630501843272,93362,285589,392488
1630501843282,93363,285634,392543
1630501843292,93378,285637,392533
1630501843302,93397,285632,392563
1630501843312,93413,285679,392606
1630501843322,93422,285729,392686
1630501843332,93431,285736,392703
1630501843342,93457,285795,392733
1630501843352,93478,285781,392753
1630501843362,93487,285795,392850
1630501843372,93509,285818,392827
1630501843382,93491,285788,392842
1630501843392,93498,285796,392847
1630501843402,93513,285792,392866
1630501843412,93506,285740,392933
1630501843422,93496,285778,392895
1630501843432,93488,285754,392942
1630501843442,93497,285758,392945
1630501843452,93514,285721,392946
1630501843462,93493,285765,392897
1630501843472,93505,285734,392886
1630501843482,93499,285738,392895
1630501843492,93501,285743,392934
1630501843502,93497,285716,392903
1630501843512,93477,285688,392929
1630501843522,93496,285707,392894
1630501843532,93470,285699,392872
1630501843542,93501,285717,392924
1630501843552,93494,285686,392902
1630501843562,93486,285689,392881
1630501843572,93499,285674,392906
1630501843582,93500,285705,392902
1630501843592,93510,285716,392905
1630501843602,93515,285711,392904
1630501843612,93517,285717,392869
1630501843622,93521,285681,392883
1630501843632,93523,285685,392884
1630501843642,93511,285697,392879
1630501843652,93530,285626,392849
1630501843662,93522,285690,392842
1630501843672,93530,285695,392889
1630501843682,93554,285695,392851
1630501843692,93553,285714,392891
1630501843702,93577,285694,392899
1630501843712,93562,285676,392886
1630501843722,93585,285720,392891
1630501843732,93588,285699,392870
1630501843742,93612,285713,392899
1630501843752,93616,285708,392925
1630501843762,93629,285743,392871
1630501843772,93622,285760,392898
1630501843782,93645,285693,392847
1630501843792,93652,285718,392913
1630501843802,93655,285737,392906
1630501843812,93643,285771,392922
1630501843822,93655,285804,392919
1630501843832,93700,285789,392924
1630501843842,93718,285814,392958
1630501843852,93721,285761,392948
1630501843862,93709,285793,392996
1630501843872,93748,285823,393028
1630501843882,93732,285831,392971
1630501843892,93769,285883,393032
1630501843902,93787,285806,392999
1630501843912,93808,285885,393026
1630501843922,93821,285859,393062
1630501843932,93830,285876,393056
1630501843942,93841,285864,393081
1630501843952,93865,285874,393070
1630501843962,93862,285815,393121
1630501843972,93842,285839,393112
1630501843982,93843,285870,393118
1630501843992,93846,285850,393125
1630501844002,93855,285814,393103
1630501844012,93835,285832,393141
1630501844022,93841,285782,393155
1630501844032,93823,285829,393155
1630501844042,93836,285801,393159
1630501844052,93848,285811,393194
1630501844062,93823,285766,393132
1630501844072,93836,285785,393154
1630501844082,93828,285759,393149
1630501844092,93833,285787,393123
1630501844102,93840,285778,393132
1630501844112,93837,285814,393160
1630501844122,93856,285754,393158
1630501844132,93859,285782,393201
1630501844142,93840,285797,393142
1630501844152,93840,285785,393138
1630501844162,93846,285774,393116
1630501844172,93869,285763,393120
1630501844182,93860,285783,393143
1630501844192,93879,285820,393161
1630501844202,93882,285765,393138
1630501844212,93879,285759,393104
1630501844222,93869,285750,393147
1630501844232,93884,285796,393156
1630501844242,93874,285816,393151
1630501844252,93896,285823,393170
1630501844262,93894,285837,393153
1630501844272,93907,285835,393168
1630501844282,93915,285841,393203
1630501844292,93930,285872,393177
1630501844302,93942,285857,393190
1630501844312,93933,285873,393164
1630501844322,93955,285895,393194
1630501844332,93966,285924,393220
1630501844342,93969,285913,393230
1630501844352,93974,285943,393188
1630501844362,94003,285930,393203
1630501844372,94026,285968,393232
1630501844382,94006,285944,393223
1630501844392,94046,285988,393189
1630501844402,94065,285965,393192
1630501844412,94068,285975,393185
1630501844422,94088,285959,393199
1630501844432,94085,285983,393185
1630501844442,94093,286000,393179
1630501844452,94113,286006,393196
1630501844462,94130,286000,393224
1630501844472,94153,286072,393267
1630501844482,94181,286096,393253
1630501844492,94199,286102,393300
1630501844502,94231,286152,393315
1630501844512,94252,286193,393357
1630501844522,94284,286232,393355
1630501844532,94301,286210,393444
1630501844542,94323,286241,393426
1630501844552,94328,286290,393450
1630501844562,94333,286262,393480
1630501844572,94355,286257,393495
1630501844582,94347,286274,393522
1630501844592,94353,286233,393517
1630501844602,94327,286281,393542
1630501844612,94319,286282,393517
1630501844622,94334,286287,393533
1630501844632,94341,286298,393544
1630501844642,94322,286255,393560
1630501844652,94341,286283,393552
1630501844662,94356,286296,393583
1630501844672,94366,286311,393587
1630501844682,94352,286317,393588
1630501844692,94345,286301,393615
1630501844702,94353,286354,393631
1630501844712,94370,286304,393644
1630501844722,94383,286334,393631
1630501844732,94370,286327,393617
1630501844742,94387,286371,393643
1630501844752,94387,286335,393641
1630501844762,94384,286366,393649
1630501844772,94374,286369,393688
1630501844782,94384,286410,393641
1630501844792,94404,286393,393661
1630501844802,94395,286413,393685
1630501844812,94399,286431,393647
1630501844822,94399,286431,393700
1630501844832,94416,286432,393701
1630501844842,94438,286436,393703
1630501844852,94405,286417,393668
1630501844862,94419,286435,393680
1630501844872,94431,286443,393696
1630501844882,94473,286453,393725
1630501844892,94493,286498,393754
1630501844902,94502,286527,393767
1630501844912,94492,286533,393815
1630501844922,94482,286582,393849
1630501844932,94480,286516,393844
1630501844942,94510,286578,393831
1630501844952,94507,286575,393851
1630501844962,94501,286648,393858
1630501844972,94572,286643,393873
1630501844982,94557,286642,393928
1630501844992,94565,286642,393923
1630501845002,94566,286682,393907
1630501845012,94578,286702,393955
1630501845022,94572,286699,393898
1630501845032,94586,286710,393916
1630501845042,94592,286715,393897
1630501845052,94602,286699,393866
1630501845062,94643,286688,393873
1630501845072,94645,286692,393872
1630501845082,94663,286746,393869
1630501845092,94656,286712,393917
1630501845102,94679,286775,393913
1630501845112,94672,286804,393937
1630501845122,94714,286802,393952
1630501845132,94727,286817,393972
1630501845142,94729,286874,394034
1630501845152,94761,286899,394082
1630501845162,94771,286894,394114
1630501845172,94792,286920,394123
1630501845182,94798,286900,394169
1630501845192,94781,286882,394195
1630501845202,94778,286953,394198
1630501845212,94805,286920,394223
1630501845222,94794,286921,394213
1630501845232,94792,286932,394221
1630501845242,94806,286922,394254
1630501845252,94804,286939,394233
1630501845262,94800,286983,394248
1630501845272,94808,286971,394282
1630501845282,94811,286991,394315
1630501845292,94808,287005,394288
1630501845302,94839,287006,394259
1630501845312,94847,287031,394366
1630501845322,94851,287076,394281
1630501845332,94840,287032,394316
1630501845342,94831,287066,394288
1630501845352,94819,287007,394292
1630501845362,94838,287034,394247
1630501845372,94842,287044,394283
1630501845382,94880,287023,394278
1630501845392,94854,287015,394283
1630501845402,94873,287020,394308
1630501845412,94872,287094,394269
1630501845422,94877,287067,394304
1630501845432,94889,287038,394280
1630501845442,94882,287059,394308
1630501845452,94880,287043,394249
1630501845462,94894,287032,394247
1630501845472,94880,287029,394259
1630501845482,94921,287022,394219
1630501845492,94942,287027,394238
1630501845502,94911,287001,394194
1630501845512,94912,286971,394172
1630501845522,94919,286996,394205
1630501845532,94896,286990,394169
1630501845542,94916,286985,394130
1630501845552,94933,286950,394137
1630501845562,94917,286958,394175
1630501845572,94920,286948,394124
1630501845582,94927,286933,394157
1630501845592,94919,286940,394096
1630501845602,94936,286942,394103
1630501845612,94934,286950,394117
1630501845622,94952,286944,394062
1630501845632,94967,286942,394055
1630501845642,94949,286960,394075
1630501845652,94957,286944,394099
1630501845662,94951,286949,394024
1630501845672,94942,286933,394064
1630501845682,94948,286873,394037
1630501845692,94978,286899,394007
1630501845702,94984,286939,394036
1630501845712,94975,286895,394024
1630501845722,94999,286923,394039
1630501845732,94978,286900,393998
1630501845742,94996,286915,394014
1630501845752,95018,286936,394054
1630501845762,95025,286951,394048
1630501845772,95021,286908,394017
1630501845782,95047,286905,394014
1630501845792,95031,286895,394028
1630501845802,95034,286890,394033
1630501845812,95004,286839,394027
1630501845822,95011,286891,394053
1630501845832,95017,286855,394044
1630501845842,94997,286800,394004
1630501845852,94969,286831,393997
1630501845862,94968,286812,393988
1630501845872,94959,286815,393985
1630501845882,94958,286806,393971
1630501845892,94940,286802,393961
1630501845902,94928,286816,393985
1630501845912,94932,286802,393941
1630501845922,94935,286795,393936
1630501845932,94925,286775,393921
1630501845942,94944,286780,393901
1630501845952,94933,286748,393916
1630501845962,94930,286724,393898
1630501845972,94931,286801,393914
1630501845982,94921,286759,393912
1630501845992,94931,286764,393935
1630501846002,94930,286786,393903
1630501846012,94917,286798,393959
1630501846022,94897,286786,393895
1630501846032,94922,286757,393897
1630501846042,94943,286772,393934
1630501846052,94929,286749,393942
1630501846062,94921,286814,393934
1630501846072,94920,286829,393909
1630501846082,94915,286789,393942
1630501846092,94928,286786,393938
1630501846102,94927,286806,393934
1630501846112,94955,286832,393916
1630501846122,94961,286829,393919
1630501846132,94954,286800,393932
1630501846142,94944,286810,393919
1630501846152,94940,286803,393927
1630501846162,94937,286776,393903
1630501846172,94941,286822,393876
1630501846182,94938,286748,393925
1630501846192,94941,286799,393888
1630501846202,94932,286773,393876
1630501846212,94918,286758,393857
1630501846222,94929,286764,393837
1630501846232,94933,286743,393886
1630501846242,94927,286773,393846
1630501846252,94932,286764,393822
1630501846262,94936,286743,393833
1630501846272,94940,286773,393843
1630501846282,94961,286728,393821
1630501846292,94965,286769,393832
1630501846302,94963,286817,393825
1630501846312,94977,286780,393814
1630501846322,94964,286761,393828
1630501846332,94989,286775,393823
1630501846342,94999,286765,393833
1630501846352,94997,286752,393829
1630501846362,95025,286791,393880
1630501846372,95026,286797,393884
1630501846382,95020,286822,393877
1630501846392,95028,286824,393895
1630501846402,95017,286820,393860
1630501846412,95023,286794,393912
1630501846422,95018,286781,393963
1630501846432,95001,286770,393896
1630501846442,95017,286759,393942
1630501846452,94993,286762,393951
1630501846462,94985,286800,393938
1630501846472,94954,286787,393992
1630501846482,94945,286793,393939
1630501846492,94945,286700,393947
1630501846502,94941,286759,393936
1630501846512,94922,286745,393964
1630501846522,94914,286733,393939
1630501846532,94906,286694,393944
1630501846542,94907,286740,393930
1630501846552,94884,286728,393886
1630501846562,94863,286692,393855
1630501846572,94839,286704,393857
1630501846582,94843,286701,393790
1630501846592,94848,286647,393817
1630501846602,94843,286644,393765
1630501846612,94855,286611,393722
1630501846622,94838,286587,393735
1630501846632,94843,286631,393706
1630501846642,94856,286593,393656
1630501846652,94858,286599,393688
1630501846662,94849,286588,393664
1630501846672,94857,286566,393630
1630501846682,94849,286572,393604
1630501846692,94849,286601,393614
1630501846702,94846,286548,393625
1630501846712,94856,286530,393622
1630501846722,94856,286610,393565
1630501846732,94867,286549,393579
1630501846742,94868,286628,393564
1630501846752,94878,286573,393545
1630501846762,94882,286546,393593
1630501846772,94858,286599,393532
1630501846782,94894,286592,393578
1630501846792,94882,286587,393572
1630501846802,94892,286603,393558
1630501846812,94914,286596,393566
1630501846822,94913,286642,393576
1630501846832,94912,286621,393626
1630501846842,94921,286573,393576
1630501846852,94938,286634,393573
1630501846862,94940,286624,393600
1630501846872,94947,286633,393573
1630501846882,94971,286649,393604
1630501846892,94961,286640,393666
1630501846902,94978,286665,393664
1630501846912,94988,286701,393667
1630501846922,94998,286696,393646
1630501846932,95025,286677,393692
1630501846942,95033,286705,393650
1630501846952,95035,286753,393732
1630501846962,95040,286758,393675
1630501846972,95079,286720,393696
1630501846982,95052,286750,393707
1630501846992,95091,286786,393715
1630501847002,95104,286783,393750
1630501847012,95098,286774,393719
1630501847022,95096,286778,393747
1630501847032,95103,286800,393809
1630501847042,95111,286761,393805
1630501847052,95088,286712,393752
1630501847062,95057,286774,393791
1630501847072,95052,286746,393788
1630501847082,95059,286734,393810
1630501847092,95043,286717,393820
1630501847102,95030,286742,393809
1630501847112,95006,286741,393833
1630501847122,95003,286760,393783
1630501847132,94993,286738,393828
1630501847142,95018,286757,393855
1630501847152,94998,286752,393881
1630501847162,94986,286737,393880
1630501847172,94980,286736,393859
1630501847182,94993,286776,393874
1630501847192,94970,286747,393848
1630501847202,94966,286813,393870
1630501847212,94970,286801,393896
1630501847222,94973,286749,393876
1630501847232,94974,286781,393860
1630501847242,95002,286833,393848
1630501847252,94987,286813,393893
1630501847262,94969,286780,393855
1630501847272,94999,286836,393885
1630501847282,94997,286799,393887
1630501847292,94990,286791,393875
1630501847302,94981,286799,393857
1630501847312,94988,286786,393908
1630501847322,95001,286780,393881
1630501847332,94984,286793,393939
1630501847342,94981,286811,393882
1630501847352,94965,286735,393905
1630501847362,94970,286811,393889
1630501847372,94962,286769,393866
1630501847382,94967,286787,393905
1630501847392,94982,286799,393857
1630501847402,94961,286787,393921
1630501847412,94964,286787,393899
1630501847422,94979,286809,393867
1630501847432,94982,286792,393867
1630501847442,94997,286797,393919
1630501847452,94979,286818,393872
1630501847462,94989,286820,393898
1630501847472,94997,286808,393927
1630501847482,94995,286855,393925
1630501847492,94975,286798,393908
1630501847502,94998,286808,393925
1630501847512,94985,286843,393917
1630501847522,94994,286845,393917
1630501847532,95004,286827,393949
1630501847542,95010,286882,393932
1630501847552,95021,286886,393933
1630501847562,95021,286872,393941
1630501847572,95014,286845,393942
1630501847582,95022,286895,393912
1630501847592,95030,286870,393911
1630501847602,95053,286893,393962
1630501847612,95046,286899,393945
1630501847622,95061,286876,393978
1630501847632,95064,286895,393973
1630501847642,95079,286868,393944
1630501847652,95065,286890,393983
1630501847662,95046,286869,394002
1630501847672,95036,286849,394008
1630501847682,95010,286849,394022
1630501847692,94982,286810,394004
1630501847702,94970,286837,394018
1630501847712,94949,286840,394007
1630501847722,94936,286811,393954
1630501847732,94948,286786,393981
1630501847742,94899,286810,393993
1630501847752,94887,286793,393982
1630501847762,94881,286799,393995
1630501847772,94895,286824,393967
1630501847782,94894,286829,394019
1630501847792,94879,286817,393978
1630501847802,94876,286835,394020
1630501847812,94859,286821,393958
1630501847822,94861,286839,393951
1630501847832,94874,286815,393963
1630501847842,94859,286806,393944
1630501847852,94839,286843,393941
1630501847862,94852,286828,393985
1630501847872,94850,286829,393958
1630501847882,94848,286810,393944
1630501847892,94863,286829,393963
1630501847902,94857,286848,393948
1630501847912,94835,286848,393929
1630501847922,94850,286848,393946
1630501847932,94860,286834,393958
1630501847942,94867,286844,393976
1630501847952,94849,286831,393964
1630501847962,94842,286811,394001
1630501847972,94840,286807,393972
1630501847982,94824,286840,393941
1630501847992,94839,286834,393919
1630501848002,94836,286812,393953
1630501848012,94829,286802,393931
1630501848022,94811,286805,393948
1630501848032,94824,286815,393918
1630501848042,94828,286816,393987
1630501848052,94826,286813,393950
1630501848062,94820,286830,393937
1630501848072,94830,286844,393926
1630501848082,94805,286832,393959
1630501848092,94807,286799,393914
1630501848102,94792,286825,393915
1630501848112,94790,286765,393867
1630501848122,94786,286803,393909
1630501848132,94801,286768,393860
1630501848142,94787,286789,393876
1630501848152,94797,286789,393906
1630501848162,94778,286785,393883
1630501848172,94778,286816,393890
1630501848182,94778,286780,393913
1630501848192,94779,286806,393928
1630501848202,94772,286813,393916
1630501848212,94799,286830,393961
1630501848222,94801,286792,393886
1630501848232,94801,286827,393957
1630501848242,94793,286839,393950
1630501848252,94812,286804,393988
1630501848262,94778,286831,393973
1630501848272,94787,286795,394019
1630501848282,94764,286801,393991
1630501848292,94738,286751,393994
1630501848302,94717,286786,394067
1630501848312,94673,286776,394057
1630501848322,94623,286751,394018
1630501848332,94592,286762,394037
1630501848342,94600,286734,394023
1630501848352,94581,286714,394013
1630501848362,94578,286730,393986
1630501848372,94539,286740,393994
1630501848382,94528,286707,393971
1630501848392,94514,286695,394049
1630501848402,94524,286733,393986
1630501848412,94491,286699,393978
1630501848422,94493,286720,393985
1630501848432,94463,286692,394018
1630501848442,94450,286734,393998
1630501848452,94463,286721,394060
1630501848462,94453,286686,394045
1630501848472,94462,286747,394052
1630501848482,94446,286749,394043
1630501848492,94432,286753,394038
1630501848502,94434,286762,394069
1630501848512,94433,286738,394068
1630501848522,94426,286749,394083
1630501848532,94425,286732,394054
1630501848542,94427,286735,394011
1630501848552,94397,286743,394042
1630501848562,94411,286724,394075
1630501848572,94413,286780,394026
1630501848582,94387,286716,394071
1630501848592,94406,286729,394068
1630501848602,94395,286760,394052
1630501848612,94393,286731,394063
1630501848622,94381,286769,394033
1630501848632,94394,286764,394075
1630501848642,94376,286748,394092
1630501848652,94373,286748,394051
1630501848662,94377,286783,394057
1630501848672,94387,286755,394046
1630501848682,94368,286769,394055
1630501848692,94374,286772,394096
1630501848702,94365,286763,394036
1630501848712,94356,286749,394008
1630501848722,94355,286735,394041
1630501848732,94343,286778,394012
1630501848742,94338,286723,394008
1630501848752,94344,286734,394009
1630501848762,94355,286726,394060
1630501848772,94360,286762,393998
1630501848782,94347,286697,394006
1630501848792,94353,286726,393981
1630501848802,94353,286717,394004
1630501848812,94349,286730,393964
1630501848822,94359,286728,393984
1630501848832,94355,286736,393977
1630501848842,94376,286741,393941
1630501848852,94359,286754,393967
1630501848862,94372,286702,393964
1630501848872,94389,286767,393966
1630501848882,94390,286691,393944
1630501848892,94358,286727,393943
1630501848902,94359,286689,393987
1630501848912,94326,286683,393928
1630501848922,94287,286654,393929
1630501848932,94260,286629,393948
1630501848942,94223,286629,393953
1630501848952,94224,286668,393892
1630501848962,94214,286614,393953
1630501848972,94196,286612,393888
1630501848982,94170,286655,393912
1630501848992,94145,286593,393884
1630501849002,94137,286614,393901
1630501849012,94124,286618,393873
1630501849022,94108,286602,393882
1630501849032,94092,286613,393840
1630501849042,94084,286614,393854
1630501849052,94078,286619,393865
1630501849062,94074,286595,393899
1630501849072,94044,286579,393819
1630501849082,94051,286626,393854
1630501849092,94079,286599,393829
1630501849102,94056,286632,393846
1630501849112,94068,286576,393832
1630501849122,94050,286601,393833
1630501849132,94046,286610,393828
1630501849142,94053,286605,393885
1630501849152,94060,286621,393867
1630501849162,94059,286613,393856
1630501849172,94032,286619,393859
1630501849182,94031,286622,393852
1630501849192,94064,286639,393869
1630501849202,94041,286572,393881
1630501849212,94050,286595,393885
1630501849222,94048,286622,393857
1630501849232,94027,286614,393885
1630501849242,94029,286638,393935
1630501849252,94004,286670,393906
1630501849262,94020,286617,393885
1630501849272,94026,286599,393904
1630501849282,94018,286606,393891
1630501849292,94011,286653,393892
1630501849302,94001,286603,393889
1630501849312,93994,286586,393866
1630501849322,94001,286594,393843
1630501849332,93993,286592,393843
1630501849342,94017,286590,393813
1630501849352,94015,286567,393826
1630501849362,94002,286603,393793
1630501849372,93981,286613,393793
1630501849382,94012,286570,393767
1630501849392,94000,286534,393827
1630501849402,93995,286590,393804
1630501849412,94001,286555,393806
1630501849422,94024,286619,393831
1630501849432,94019,286581,393782
1630501849442,94027,286599,393753
1630501849452,94036,286648,393814
1630501849462,94013,286626,393850
1630501849472,94036,286621,393820
1630501849482,94031,286634,393819
1630501849492,94040,286618,393838
1630501849502,94042,286644,393824
1630501849512,94030,286574,393850
1630501849522,94011,286554,393803
1630501849532,93980,286549,393865
1630501849542,93961,286507,393829
1630501849552,93926,286528,393788
1630501849562,93906,286522,393789
1630501849572,93879,286498,393780
1630501849582,93846,286505,393794
1630501849592,93830,286505,393814
1630501849602,93823,286509,393749
1630501849612,93805,286495,393796
1630501849622,93801,286544,393798
1630501849632,93765,286497,393771
1630501849642,93759,286483,393750
1630501849652,93755,286477,393728
1630501849662,93744,286487,393787
1630501849672,93759,286445,393737
1630501849682,93743,286493,393782
1630501849692,93760,286538,393831
1630501849702,93750,286495,393750
1630501849712,93768,286487,393749
1630501849722,93764,286532,393783
1630501849732,93740,286500,393773
1630501849742,93747,286540,393745
1630501849752,93737,286474,393739
1630501849762,93762,286530,393739
1630501849772,93735,286479,393733
1630501849782,93749,286507,393715
1630501849792,93746,286495,393749
1630501849802,93724,286515,393755
1630501849812,93719,286507,393770
1630501849822,93739,286522,393714
1630501849832,93732,286506,393723
1630501849842,93729,286486,393727
1630501849852,93711,286492,393709
1630501849862,93727,286496,393742
1630501849872,93734,286519,393747
1630501849882,93713,286492,393739
1630501849892,93730,286512,393723
1630501849902,93727,286516,393708
1630501849912,93739,286481,393756
1630501849922,93721,286490,393774
1630501849932,93731,286508,393762
1630501849942,93739,286509,393745
1630501849952,93745,286549,393735
1630501849962,93749,286491,393759
1630501849972,93759,286542,393761
1630501849982,93749,286541,393784
1630501849992,93747,286525,393787
1630501850002,93768,286562,393764
1630501850012,93767,286518,393769
1630501850022,93774,286547,393755
1630501850032,93768,286604,393779
1630501850042,93767,286592,393754
1630501850052,93792,286588,393754
1630501850062,93789,286568,393736
1630501850072,93773,286566,393742
1630501850082,93799,286615,393767
1630501850092,93804,286617,393752
1630501850102,93793,286570,393770
1630501850112,93812,286571,393774
1630501850122,93803,286569,393784
1630501850132,93760,286558,393734
1630501850142,93747,286563,393769
1630501850152,93730,286535,393759
1630501850162,93719,286489,393822
1630501850172,93697,286506,393761
1630501850182,93630,286490,393797
1630501850192,93638,286489,393814
1630501850202,93620,286479,393786
1630501850212,93591,286476,393770
1630501850222,93600,286489,393722
1630501850232,93577,286491,393768
1630501850242,93575,286498,393782
1630501850252,93566,286466,393749
1630501850262,93558,286479,393783
1630501850272,93544,286478,393721
1630501850282,93541,286476,393784
1630501850292,93527,286439,393753
1630501850302,93518,286485,393723
1630501850312,93532,286439,393741
1630501850322,93494,286426,393767
1630501850332,93517,286434,393727
1630501850342,93521,286439,393724
1630501850352,93526,286455,393731
1630501850362,93536,286421,393709
1630501850372,93544,286404,393720
1630501850382,93539,286398,393680
1630501850392,93537,286436,393667
1630501850402,93533,286374,393727
1630501850412,93532,286358,393651
1630501850422,93521,286362,393702
1630501850432,93519,286406,393686
1630501850442,93515,286317,393687
1630501850452,93508,286326,393723
1630501850462,93531,286328,393745
1630501850472,93519,286358,393717
1630501850482,93511,286349,393696
1630501850492,93515,286336,393672
1630501850502,93516,286321,393683
1630501850512,93512,286303,393672
1630501850522,93528,286309,393708
1630501850532,93524,286316,393685
1630501850542,93538,286322,393721
1630501850552,93541,286345,393723
1630501850562,93544,286343,393712
1630501850572,93538,286346,393707
1630501850582,93523,286348,393707
1630501850592,93555,286332,393699
1630501850602,93547,286281,393740
1630501850612,93561,286293,393708
1630501850622,93557,286344,393724
1630501850632,93555,286297,393706
1630501850642,93563,286337,393674
1630501850652,93543,286275,393688
1630501850662,93558,286321,393712
1630501850672,93566,286329,393718
1630501850682,93558,286322,393689
1630501850692,93564,286314,393725
1630501850702,93564,286366,393714
1630501850712,93572,286289,393690
1630501850722,93539,286308,393770
1630501850732,93544,286322,393782
1630501850742,93548,286287,393734
1630501850752,93516,286283,393754
1630501850762,93501,286230,393769
1630501850772,93464,286259,393785
1630501850782,93444,286215,393756
1630501850792,93421,286205,393747
1630501850802,93409,286191,393712
1630501850812,93378,286155,393695
1630501850822,93353,286126,393687
1630501850832,93329,286073,393635
1630501850842,93335,286095,393644
1630501850852,93308,286111,393643
1630501850862,93301,286137,393620
1630501850872,93295,286149,393606
1630501850882,93286,286122,393585
1630501850892,93299,286091,393618
1630501850902,93288,286102,393598
1630501850912,93273,286127,393587
1630501850922,93273,286106,393584
1630501850932,93274,286103,393560
1630501850942,93281,286104,393613
1630501850952,93283,286148,393611
1630501850962,93295,286173,393614
1630501850972,93305,286201,393598
1630501850982,93295,286135,393623
1630501850992,93304,286190,393594
1630501851002,93292,286168,393643
1630501851012,93292,286164,393583
1630501851022,93296,286217,393599
1630501851032,93305,286187,393643
1630501851042,93303,286207,393609
1630501851052,93309,286165,393609
1630501851062,93312,286210,393600
1630501851072,93312,286188,393543
1630501851082,93274,286175,393524
1630501851092,93289,286176,393530
1630501851102,93283,286146,393512
1630501851112,93297,286136,393490
1630501851122,93300,286176,393458
1630501851132,93297,286147,393448
1630501851142,93302,286152,393484
1630501851152,93304,286193,393494
1630501851162,93332,286167,393482
1630501851172,93339,286171,393528
1630501851182,93348,286209,393555
1630501851192,93360,286258,393556
1630501851202,93364,286242,393524
1630501851212,93374,286223,393554
1630501851222,93393,286245,393556
1630501851232,93397,286258,393582
1630501851242,93398,286284,393644
1630501851252,93415,286337,393665
1630501851262,93419,286320,393602
1630501851272,93428,286357,393711
1630501851282,93455,286374,393686
1630501851292,93448,286380,393671
1630501851302,93458,286361,393716
1630501851312,93473,286392,393711
1630501851322,93452,286420,393710
1630501851332,93475,286407,393714
1630501851342,93468,286390,393722
1630501851352,93485,286399,393748
1630501851362,93457,286406,393765
1630501851372,93420,286288,393700
1630501851382,93420,286308,393747
1630501851392,93381,286343,393745
1630501851402,93358,286319,393747
1630501851412,93360,286306,393717
1630501851422,93346,286261,393740
1630501851432,93341,286297,393706
1630501851442,93347,286279,393726
1630501851452,93334,286277,393694
1630501851462,93325,286269,393656
1630501851472,93335,286257,393659
1630501851482,93319,286275,393653
1630501851492,93294,286304,393634
1630501851502,93308,286247,393616
1630501851512,93309,286268,393621
1630501851522,93301,286263,393554
1630501851532,93304,286280,393632
1630501851542,93328,286271,393637
1630501851552,93328,286253,393662
1630501851562,93294,286281,393649
1630501851572,93303,286276,393633
1630501851582,93323,286233,393606
1630501851592,93282,286239,393600
1630501851602,93292,286220,393584
1630501851612,93312,286258,393566
1630501851622,93311,286229,393503
1630501851632,93323,286172,393538
1630501851642,93316,286218,393525
1630501851652,93308,286221,393479
1630501851662,93300,286177,393531
1630501851672,93331,286190,393461
1630501851682,93322,286179,393468
1630501851692,93323,286136,393473
1630501851702,93341,286214,393488
1630501851712,93328,286176,393512
1630501851722,93318,286189,393502
1630501851732,93326,286188,393524
1630501851742,93331,286195,393536
1630501851752,93331,286237,393537
1630501851762,93341,286237,393529
1630501851772,93346,286225,393557
1630501851782,93357,286215,393531
1630501851792,93371,286216,393537
1630501851802,93339,286235,393513
1630501851812,93370,286215,393486
1630501851822,93359,286203,393486
1630501851832,93369,286225,393522
1630501851842,93396,286205,393496
1630501851852,93392,286249,393497
1630501851862,93402,286198,393527
1630501851872,93407,286222,393485
1630501851882,93410,286215,393515
1630501851892,93415,286212,393481
1630501851902,93419,286239,393501
1630501851912,93417,286219,393472
1630501851922,93422,286199,393490
1630501851932,93437,286229,393509
1630501851942,93413,286166,393508
1630501851952,93410,286184,393489
1630501851962,93414,286144,393495
1630501851972,93391,286130,393536
1630501851982,93386,286154,393500
1630501851992,93352,286104,393517
1630501852002,93333,286143,393438
1630501852012,93310,286129,393487
1630501852022,93323,286123,393493
1630501852032,93294,286137,393473
1630501852042,93314,286137,393485
1630501852052,93280,286142,393495
1630501852062,93274,286169,393489
1630501852072,93284,286175,393516
1630501852082,93266,286163,393523
1630501852092,93277,286177,393526
1630501852102,93285,286153,393580
1630501852112,93278,286205,393550
1630501852122,93283,286172,393514
1630501852132,93299,286214,393522
1630501852142,93282,286207,393507
1630501852152,93280,286170,393528
1630501852162,93282,286215,393526
1630501852172,93312,286181,393535
1630501852182,93311,286171,393487
1630501852192,93305,286207,393542
1630501852202,93280,286164,393500
1630501852212,93288,286185,393484
1630501852222,93306,286162,393485
1630501852232,93300,286177,393457
1630501852242,93290,286215,393467
1630501852252,93301,286189,393451
1630501852262,93321,286168,393480
1630501852272,93311,286162,393484
1630501852282,93306,286193,393434
1630501852292,93314,286176,393477
1630501852302,93308,286179,393496
1630501852312,93302,286208,393491
1630501852322,93318,286194,393520
1630501852332,93336,286212,393485
1630501852342,93334,286189,393536
1630501852352,93340,286205,393518
1630501852362,93328,286223,393495
1630501852372,93351,286214,393462
1630501852382,93352,286226,393514
1630501852392,93352,286212,393504
1630501852402,93360,286224,393483
1630501852412,93387,286252,393492
1630501852422,93389,286243,393491
1630501852432,93370,286249,393498
1630501852442,93398,286242,393496
1630501852452,93413,286262,393514
1630501852462,93402,286276,393494
1630501852472,93421,286320,393486
1630501852482,93429,286281,393574
1630501852492,93436,286256,393506
1630501852502,93449,286245,393491
1630501852512,93446,286317,393510
1630501852522,93447,286287,393530
1630501852532,93459,286251,393511
1630501852542,93451,286251,393512
1630501852552,93416,286223,393500
1630501852562,93416,286190,393561
1630501852572,93391,286232,393504
1630501852582,93395,286204,393507
1630501852592,93385,286238,393545
1630501852602,93378,286188,393537
1630501852612,93368,286258,393561
1630501852622,93339,286226,393479
1630501852632,93346,286167,393509
1630501852642,93339,286178,393506
1630501852652,93344,286211,393496
1630501852662,93349,286200,393534
1630501852672,93340,286180,393482
1630501852682,93344,286191,393496
1630501852692,93330,286196,393509
1630501852702,93335,286204,393478
1630501852712,93333,286180,393487
1630501852722,93335,286198,393458
1630501852732,93335,286200,393482
1630501852742,93359,286173,393480
1630501852752,93348,286190,393498
1630501852762,93372,286185,393527
1630501852772,93363,286232,393494
1630501852782,93369,286156,393479
1630501852792,93380,286186,393508
1630501852802,93365,286171,393491
1630501852812,93376,286213,393475
1630501852822,93375,286202,393484
1630501852832,93368,286223,393506
1630501852842,93376,286210,393488
1630501852852,93375,286206,393459
1630501852862,93373,286208,393497
1630501852872,93371,286184,393414
1630501852882,93386,286175,393452
1630501852892,93378,286166,393497
1630501852902,93397,286186,393441
1630501852912,93383,286147,393430
1630501852922,93407,286259,393464
1630501852932,93402,286234,393465
1630501852942,93400,286197,393483
1630501852952,93405,286181,393480
1630501852962,93424,286197,393454
1630501852972,93431,286180,393484
1630501852982,93433,286212,393448
1630501852992,93445,286225,393451
1630501853002,93435,286186,393444
1630501853012,93440,286244,393495
1630501853022,93476,286213,393495
1630501853032,93479,286212,393502
1630501853042,93459,286246,393499
1630501853052,93475,286230,393459
1630501853062,93475,286243,393455
1630501853072,93508,286218,393493
1630501853082,93522,286230,393489
1630501853092,93503,286268,393505
1630501853102,93523,286255,393529
1630501853112,93535,286254,393477
1630501853122,93517,286226,393518
1630501853132,93511,286246,393506
1630501853142,93520,286248,393499
1630501853152,93519,286186,393489
1630501853162,93496,286191,393496
1630501853172,93474,286186,393500
1630501853182,93457,286189,393517
1630501853192,93459,286192,393518
1630501853202,93449,286162,393515
1630501853212,93428,286158,393514
1630501853222,93453,286184,393494
1630501853232,93431,286171,393519
1630501853242,93448,286175,393478
1630501853252,93440,286180,393507
1630501853262,93447,286162,393480
1630501853272,93435,286128,393536
1630501853282,93424,286148,393507
1630501853292,93432,286143,393495
1630501853302,93447,286182,393500
1630501853312,93436,286194,393500
1630501853322,93438,286165,393517
1630501853332,93474,286163,393495
1630501853342,93433,286178,393513
1630501853352,93449,286191,393522
1630501853362,93449,286192,393521
1630501853372,93457,286199,393511
1630501853382,93476,286231,393541
1630501853392,93475,286188,393524
1630501853402,93476,286223,393541
1630501853412,93481,286191,393538
1630501853422,93493,286219,393525
1630501853432,93472,286196,393526
1630501853442,93480,286208,393542
1630501853452,93484,286245,393512
1630501853462,93499,286200,393531
1630501853472,93478,286230,393588
1630501853482,93506,286224,393572
1630501853492,93505,286227,393568
1630501853502,93502,286206,393547
1630501853512,93506,286197,393582
1630501853522,93529,286272,393580
1630501853532,93524,286289,393588
1630501853542,93518,286200,393552
1630501853552,93537,286258,393598
1630501853562,93532,286212,393629
1630501853572,93563,286277,393585
1630501853582,93563,286301,393592
1630501853592,93587,286291,393598
1630501853602,93577,286275,393613
1630501853612,93580,286331,393590
1630501853622,93562,286271,393579
1630501853632,93604,286261,393602
1630501853642,93606,286285,393621
1630501853652,93626,286292,393636
1630501853662,93637,286297,393568
1630501853672,93633,286319,393592
1630501853682,93651,286282,393590
1630501853692,93640,286312,393584
1630501853702,93629,286316,393619
1630501853712,93644,286310,393582
1630501853722,93671,286298,393579
1630501853732,93662,286282,393622
1630501853742,93634,286287,393611
1630501853752,93649,286279,393608
1630501853762,93620,286252,393682
1630501853772,93624,286252,393613
1630501853782,93627,286208,393640
1630501853792,93603,286224,393609
1630501853802,93586,286250,393588
1630501853812,93601,286245,393587
1630501853822,93600,286214,393607
1630501853832,93588,286258,393582
1630501853842,93578,286200,393627
1630501853852,93579,286236,393618
1630501853862,93585,286220,393556
1630501853872,93576,286232,393574
1630501853882,93589,286224,393597
1630501853892,93599,286261,393614
1630501853902,93600,286199,393590
1630501853912,93605,286247,393601
1630501853922,93625,286245,393614
1630501853932,93599,286263,393622
1630501853942,93622,286228,393628
1630501853952,93624,286223,393566
1630501853962,93621,286227,393597
1630501853972,93634,286228,393626
1630501853982,93616,286227,393625
1630501853992,93607,286236,393601
1630501854002,93618,286223,393622
1630501854012,93610,286264,393609
1630501854022,93638,286229,393595
1630501854032,93639,286223,393601
1630501854042,93650,286224,393587
1630501854052,93641,286244,393566
1630501854062,93645,286226,393593
1630501854072,93643,286220,393584
1630501854082,93649,286243,393609
1630501854092,93643,286183,393608
1630501854102,93666,286215,393610
1630501854112,93678,286243,393560
1630501854122,93674,286218,393606
1630501854132,93678,286208,393596
1630501854142,93671,286248,393608
1630501854152,93674,286204,393629
1630501854162,93683,286259,393623
1630501854172,93682,286239,393619
1630501854182,93710,286212,393620
1630501854192,93732,286287,393634
1630501854202,93722,286261,393622
1630501854212,93717,286209,393637
1630501854222,93739,286240,393640
1630501854232,93738,286291,393596
1630501854242,93762,286279,393578
1630501854252,93753,286227,393571
1630501854262,93761,286252,393627
1630501854272,93764,286254,393589
1630501854282,93769,286292,393646
1630501854292,93771,286226,393629
1630501854302,93784,286223,393614
1630501854312,93768,286274,393596
1630501854322,93775,286223,393663
1630501854332,93766,286233,393635
1630501854342,93761,286234,393632
1630501854352,93766,286166,393601
1630501854362,93756,286192,393644
1630501854372,93759,286171,393615
1630501854382,93751,286142,393643
1630501854392,93731,286160,393599
1630501854402,93721,286159,393539
1630501854412,93703,286140,393630
1630501854422,93690,286144,393591
1630501854432,93707,286154,393664
1630501854442,93694,286120,393575
1630501854452,93704,286146,393563
1630501854462,93685,286149,393575
1630501854472,93684,286116,393598
1630501854482,93682,286106,393594
1630501854492,93681,286124,393615
1630501854502,93677,286141,393608
1630501854512,93687,286139,393573
1630501854522,93703,286140,393599
1630501854532,93700,286181,393587
1630501854542,93715,286125,393568
1630501854552,93715,286132,393620
1630501854562,93704,286139,393590
1630501854572,93709,286122,393558
1630501854582,93724,286117,393579
1630501854592,93693,286152,393580
1630501854602,93721,286119,393588
1630501854612,93715,286125,393606
1630501854622,93717,286083,393603
1630501854632,93722,286081,393558
1630501854642,93708,286093,393554
1630501854652,93707,286080,393552
1630501854662,93691,286107,393519
1630501854672,93706,286132,393526
1630501854682,93732,286130,393546
1630501854692,93718,286072,393537
1630501854702,93727,286118,393569
1630501854712,93713,286078,393551
1630501854722,93723,286121,393570
1630501854732,93725,286104,393560
1630501854742,93742,286134,393596
1630501854752,93750,286117,393578
1630501854762,93749,286101,393545
1630501854772,93752,286121,393562
1630501854782,93748,286103,393559
1630501854792,93756,286128,393573
1630501854802,93743,286151,393528
1630501854812,93759,286093,393530
1630501854822,93756,286138,393530
1630501854832,93772,286118,393538
1630501854842,93779,286156,393545
1630501854852,93798,286116,393563
1630501854862,93789,286158,393565
1630501854872,93818,286133,393572
1630501854882,93806,286118,393549
1630501854892,93814,286135,393581
1630501854902,93821,286132,393610
1630501854912,93832,286129,393602
1630501854922,93787,286081,393619
1630501854932,93803,286115,393557
1630501854942,93766,286065,393599
1630501854952,93757,286119,393620
1630501854962,93765,286079,393628
1630501854972,93743,286089,393615
1630501854982,93732,286076,393615
1630501854992,93722,286043,393594
1630501855002,93716,286067,393559
1630501855012,93727,286013,393617
1630501855022,93704,286044,393600
1630501855032,93706,286050,393593
1630501855042,93704,286020,393583
1630501855052,93673,286033,393580
1630501855062,93669,286048,393616
1630501855072,93698,286029,393592
1630501855082,93668,285996,393575
1630501855092,93687,286005,393572
1630501855102,93690,286026,393544
1630501855112,93681,286011,393568
1630501855122,93678,286014,393574
1630501855132,93683,286019,393568
1630501855142,93669,286055,393590
1630501855152,93687,286052,393618
1630501855162,93687,286052,393637
1630501855172,93692,286069,393585
1630501855182,93700,285986,393582
1630501855192,93682,286039,393596
1630501855202,93687,286019,393549
1630501855212,93702,286003,393587
1630501855222,93664,286026,393571
1630501855232,93680,286014,393599
1630501855242,93660,286044,393563
1630501855252,93691,285995,393588
1630501855262,93696,286027,393578
1630501855272,93678,286047,393566
1630501855282,93703,286002,393586
1630501855292,93674,285983,393585
1630501855302,93677,286005,393591
1630501855312,93681,286024,393587
1630501855322,93684,286003,393587
1630501855332,93674,285982,393525
1630501855342,93713,286027,393594
1630501855352,93702,286006,393576
1630501855362,93709,285962,393597
1630501855372,93736,286073,393609
1630501855382,93705,286034,393606
1630501855392,93711,286041,393611
1630501855402,93708,286036,393561
1630501855412,93730,285996,393589
1630501855422,93732,286035,393613
1630501855432,93745,286031,393598
1630501855442,93746,286023,393646
1630501855452,93745,286051,393609
1630501855462,93741,286040,393602
1630501855472,93744,286046,393592
1630501855482,93744,286042,393624
1630501855492,93770,286062,393619
1630501855502,93782,286065,393639
1630501855512,93737,286027,393657
1630501855522,93760,286002,393657
1630501855532,93757,286019,393674
1630501855542,93736,285976,393620
1630501855552,93736,286009,393659
1630501855562,93711,285965,393659
1630501855572,93715,285983,393615
1630501855582,93685,285965,393674
1630501855592,93666,285936,393610
1630501855602,93675,285969,393659
1630501855612,93655,285918,393616
1630501855622,93635,285943,393635
1630501855632,93634,285941,393643
1630501855642,93628,285916,393629
1630501855652,93633,285943,393647
1630501855662,93617,285915,393587
1630501855672,93625,285913,393616
1630501855682,93606,285881,393627
1630501855692,93628,285932,393642
1630501855702,93621,285939,393579
1630501855712,93617,285923,393628
1630501855722,93619,285948,393650
1630501855732,93646,285945,393631
1630501855742,93637,285915,393665
1630501855752,93627,285912,393682
1630501855762,93613,285866,393626
1630501855772,93627,285930,393652
1630501855782,93627,285919,393626
1630501855792,93601,285928,393633
1630501855802,93604,285890,393623
1630501855812,93618,285898,393610
1630501855822,93615,285898,393595
1630501855832,93625,285874,393617
1630501855842,93618,285873,393625
1630501855852,93604,285875,393628
1630501855862,93604,285854,393584
1630501855872,93608,285873,393661
1630501855882,93613,285896,393643
1630501855892,93616,285872,393614
1630501855902,93614,285881,393637
1630501855912,93592,285870,393605
1630501855922,93626,285894,393649
1630501855932,93603,285918,393640
1630501855942,93609,285893,393613
1630501855952,93630,285895,393633
1630501855962,93621,285883,393643
1630501855972,93621,285886,393626
1630501855982,93635,285886,393661
1630501855992,93625,285916,393660
1630501856002,93634,285919,393639
1630501856012,93646,285888,393624
1630501856022,93659,285931,393629
1630501856032,93661,285976,393655
1630501856042,93671,285910,393640
1630501856052,93669,285944,393661
1630501856062,93675,285943,393722
1630501856072,93681,285948,393687
1630501856082,93693,285973,393684
1630501856092,93681,285970,393663
1630501856102,93701,285957,393717
1630501856112,93709,285995,393715
1630501856122,93701,285982,393723
1630501856132,93683,285959,393730
1630501856142,93669,285925,393721
1630501856152,93659,285946,393731
1630501856162,93678,285921,393693
1630501856172,93671,285874,393740
1630501856182,93641,285906,393730
1630501856192,93607,285933,393730
1630501856202,93590,285917,393743
1630501856212,93591,285950,393756
1630501856222,93572,285925,393709
1630501856232,93578,285909,393751
1630501856242,93565,285904,393723
1630501856252,93571,285911,393706
1630501856262,93547,285888,393726
1630501856272,93559,285925,393721
1630501856282,93565,285881,393719
1630501856292,93554,285891,393691
1630501856302,93558,285918,393759
1630501856312,93570,285865,393728
1630501856322,93577,285879,393693
1630501856332,93570,285934,393713
1630501856342,93563,285926,393729
1630501856352,93552,285905,393689
1630501856362,93561,285888,393721
1630501856372,93573,285889,393762
1630501856382,93571,285902,393777
1630501856392,93571,285912,393778
1630501856402,93570,285872,393762
1630501856412,93568,285864,393728
1630501856422,93553,285917,393762
1630501856432,93541,285900,393721
1630501856442,93545,285911,393765
1630501856452,93553,285873,393761
1630501856462,93568,285892,393736
1630501856472,93547,285915,393722
1630501856482,93537,285841,393691
1630501856492,93557,285843,393742
1630501856502,93570,285835,393722
1630501856512,93551,285909,393706
1630501856522,93560,285881,393696
1630501856532,93571,285885,393721
1630501856542,93565,285867,393767
1630501856552,93565,285865,393754
1630501856562,93570,285868,393700
1630501856572,93584,285862,393742
1630501856582,93565,285867,393760
1630501856592,93569,285872,393705
1630501856602,93578,285854,393731
1630501856612,93589,285884,393744
1630501856622,93600,285905,393789
1630501856632,93591,285875,393715
1630501856642,93589,285911,393727
1630501856652,93590,285906,393715
1630501856662,93614,285865,393763
1630501856672,93612,285895,393770
1630501856682,93609,285884,393787
1630501856692,93624,285890,393759
1630501856702,93622,285912,393700
1630501856712,93629,285891,393755
1630501856722,93623,285896,393783
1630501856732,93624,285888,393785
1630501856742,93613,285880,393754
1630501856752,93614,285837,393735
1630501856762,93610,285846,393798
1630501856772,93592,285845,393788
1630501856782,93584,285813,393771
1630501856792,93554,285813,393732
1630501856802,93534,285805,393788
1630501856812,93538,285757,393755
1630501856822,93502,285768,393732
