timestamp,green,ir,red
1631204135233,53659,331375,321936
1631204135243,53665,331351,321947
1631204135253,53684,331385,321956
1631204135263,53695,331364,321978
1631204135273,53693,331357,321951
1631204135283,53702,331336,321977
1631204135293,53693,331391,321962
1631204135303,53695,331392,321961
1631204135313,53707,331347,321935
1631204135323,53687,331333,321995
1631204135333,53675,331319,321964
1631204135343,53659,331293,321947
1631204135353,53652,331256,321950
1631204135363,53631,331270,322002
1631204135373,53618,331238,321999
1631204135383,53605,331254,321965
1631204135393,53596,331225,321946
1631204135403,53580,331172,321967
1631204135413,53564,331241,321934
1631204135423,53558,331219,321952
1631204135433,53539,331199,321931
1631204135443,53527,331194,321974
1631204135453,53520,331246,321936
1631204135463,53508,331199,321937
1631204135473,53497,331195,321982
1631204135483,53508,331210,321986
1631204135493,53504,331169,321996
1631204135503,53486,331172,322032
1631204135513,53485,331176,321985
1631204135523,53487,331180,321976
1631204135533,53486,331167,322082
1631204135543,53493,331193,322101
1631204135553,53490,331207,322096
1631204135563,53511,331241,322158
1631204135573,53534,331257,322169
1631204135583,53540,331297,322183
1631204135593,53536,331288,322277
1631204135603,53567,331264,322284
1631204135613,53567,331301,322353
1631204135623,53570,331285,322361
1631204135633,53583,331376,322391
1631204135643,53577,331361,322395
1631204135653,53606,331379,322419
1631204135663,53605,331399,322440
1631204135673,53616,331368,322496
1631204135683,53619,331413,322521
1631204135693,53636,331395,322568
1631204135703,53646,331419,322592
1631204135713,53663,331460,322636
1631204135723,53665,331495,322626
1631204135733,53668,331478,322617
1631204135743,53701,331471,322677
1631204135753,53698,331524,322692
1631204135763,53708,331497,322768
1631204135773,53711,331480,322731
1631204135783,53732,331531,322766
1631204135793,53743,331527,322764
1631204135803,53749,331535,322789
1631204135813,53750,331562,322803
1631204135823,53768,331599,322779
1631204135833,53773,331567,322827
1631204135843,53780,331597,322823
1631204135853,53783,331612,322864
1631204135863,53782,331622,322843
1631204135873,53801,331586,322826
1631204135883,53821,331600,322871
1631204135893,53819,331621,322882
1631204135903,53824,331615,322871
1631204135913,53838,331600,322896
1631204135923,53857,331682,322948
1631204135933,53865,331674,322940
1631204135943,53887,331713,322964
1631204135953,53899,331699,322989
1631204135963,53906,331751,323001
1631204135973,53910,331748,323021
1631204135983,53929,331755,323008
1631204135993,53935,331713,323083
1631204136003,53954,331786,323043
1631204136013,53956,331738,323068
1631204136023,53961,331760,323099
1631204136033,53976,331747,323055
1631204136043,53978,331746,323084
1631204136053,53989,331751,323086
1631204136063,53986,331804,323071
1631204136073,53996,331768,323113
1631204136083,54008,331822,323103
1631204136093,54028,331799,323126
1631204136103,54046,331836,323143
1631204136113,54051,331802,323154
1631204136123,54069,331837,323176
1631204136133,54080,331863,323205
1631204136143,54104,331851,323220
1631204136153,54119,331865,323260
1631204136163,54128,331904,323264
1631204136173,54140,331929,323275
1631204136183,54143,331965,323327
1631204136193,54148,331858,323259
1631204136203,54146,331938,323216
1631204136213,54159,331913,323235
1631204136223,54129,331883,323224
1631204136233,54141,331866,323251
1631204136243,54134,331845,323202
1631204136253,54113,331895,323200
1631204136263,54083,331825,323229
1631204136273,54078,331819,323215
1631204136283,54065,331795,323234
1631204136293,54050,331784,323165
1631204136303,54031,331801,323234
1631204136313,54020,331733,323214
1631204136323,54017,331746,323257
1631204136333,54002,331769,323236
1631204136343,53987,331748,323222
1631204136353,53974,331735,323237
1631204136363,53974,331729,323259
1631204136373,53970,331736,323278
1631204136383,53955,331740,323259
1631204136393,53953,331738,323280
1631204136403,53957,331795,323253
1631204136413,53951,331779,323275
1631204136423,53946,331754,323285
1631204136433,53936,331760,323284
1631204136443,53939,331695,323269
1631204136453,53932,331738,323262
1631204136463,53927,331710,323309
1631204136473,53933,331698,323272
1631204136483,53919,331699,323234
1631204136493,53911,331701,323203
1631204136503,53901,331704,323216
1631204136513,53900,331705,323243
1631204136523,53892,331702,323242
1631204136533,53894,331752,323207
1631204136543,53876,331716,323227
1631204136553,53879,331682,323199
1631204136563,53881,331729,323234
1631204136573,53874,331699,323246
1631204136583,53879,331721,323233
1631204136593,53882,331654,323229
1631204136603,53889,331733,323255
1631204136613,53884,331721,323270
1631204136623,53894,331681,323234
1631204136633,53908,331675,323274
1631204136643,53923,331727,323308
1631204136653,53926,331714,323293
1631204136663,53924,331777,323287
1631204136673,53927,331777,323313
1631204136683,53937,331772,323349
1631204136693,53947,331743,323377
1631204136703,53955,331751,323327
1631204136713,53957,331759,323353
1631204136723,53959,331770,323332
1631204136733,53963,331790,323295
1631204136743,53975,331804,323370
1631204136753,53966,331801,323361
1631204136763,53978,331773,323375
1631204136773,54000,331810,323380
1631204136783,53997,331805,323402
1631204136793,54007,331839,323408
1631204136803,54020,331812,323411
1631204136813,54015,331872,323425
1631204136823,54035,331846,323396
1631204136833,54047,331859,323422
1631204136843,54046,331900,323473
1631204136853,54066,331887,323497
1631204136863,54083,331918,323514
1631204136873,54105,331943,323509
1631204136883,54107,331965,323551
1631204136893,54129,331982,323555
1631204136903,54146,331960,323557
1631204136913,54155,331950,323592
1631204136923,54166,332010,323597
1631204136933,54180,331984,323585
1631204136943,54188,332016,323599
1631204136953,54191,332014,323615
1631204136963,54203,331999,323653
1631204136973,54211,332035,323637
1631204136983,54225,332055,323651
1631204136993,54225,332057,323602
1631204137003,54245,332052,323667
1631204137013,54258,332016,323673
1631204137023,54257,332061,323689
1631204137033,54278,332083,323697
1631204137043,54287,332096,323729
1631204137053,54299,332105,323709
1631204137063,54309,332088,323699
1631204137073,54311,332162,323683
1631204137083,54322,332164,323725
1631204137093,54338,332127,323703
1631204137103,54345,332163,323718
1631204137113,54338,332139,323702
1631204137123,54345,332108,323721
1631204137133,54344,332085,323740
1631204137143,54326,332098,323716
1631204137153,54304,332058,323717
1631204137163,54281,332031,323691
1631204137173,54261,331973,323709
1631204137183,54244,331995,323708
1631204137193,54245,331980,323737
1631204137203,54219,331998,323700
1631204137213,54192,332003,323714
1631204137223,54178,331938,323703
1631204137233,54174,331971,323706
1631204137243,54156,331948,323677
1631204137253,54147,331949,323683
1631204137263,54140,331950,323674
1631204137273,54136,331939,323686
1631204137283,54128,331941,323729
1631204137293,54114,331924,323710
1631204137303,54103,331884,323706
1631204137313,54094,331942,323699
1631204137323,54077,331920,323726
1631204137333,54074,331890,323722
1631204137343,54058,331953,323750
1631204137353,54070,331902,323735
1631204137363,54048,331862,323752
1631204137373,54053,331854,323715
1631204137383,54049,331951,323727
1631204137393,54039,331910,323713
1631204137403,54037,331879,323765
1631204137413,54038,331920,323758
1631204137423,54025,331885,323731
1631204137433,54033,331884,323761
1631204137443,54023,331859,323736
1631204137453,54029,331853,323718
1631204137463,54017,331909,323729
1631204137473,54012,331823,323730
1631204137483,54017,331886,323758
1631204137493,54018,331875,323760
1631204137503,54022,331899,323801
1631204137513,54026,331895,323786
1631204137523,54016,331845,323784
1631204137533,54020,331877,323790
1631204137543,54000,331891,323800
1631204137553,54033,331889,323802
1631204137563,54019,331906,323801
1631204137573,54041,331871,323812
1631204137583,54038,331869,323797
1631204137593,54031,331893,323825
1631204137603,54051,331947,323833
1631204137613,54057,331900,323820
1631204137623,54063,331936,323848
1631204137633,54063,331921,323902
1631204137643,54068,331907,323871
1631204137653,54080,331947,323839
1631204137663,54090,331937,323850
1631204137673,54093,331943,323891
1631204137683,54095,331980,323909
1631204137693,54116,331972,323909
1631204137703,54126,331962,323931
1631204137713,54136,331982,323948
1631204137723,54145,331947,323976
1631204137733,54157,332019,323980
1631204137743,54168,332032,323988
1631204137753,54171,332040,323999
1631204137763,54165,332071,324004
1631204137773,54190,332006,323972
1631204137783,54198,331991,323993
1631204137793,54198,332089,324005
1631204137803,54203,332037,324007
1631204137813,54207,332106,323991
1631204137823,54224,332087,324018
1631204137833,54247,332128,324032
1631204137843,54260,332132,324007
1631204137853,54275,332102,324051
1631204137863,54270,332101,324093
1631204137873,54298,332131,324105
1631204137883,54298,332160,324085
1631204137893,54310,332094,324120
1631204137903,54323,332192,324109
1631204137913,54331,332181,324115
1631204137923,54349,332174,324152
1631204137933,54361,332253,324113
1631204137943,54365,332233,324129
1631204137953,54365,332241,324147
1631204137963,54377,332236,324158
1631204137973,54393,332235,324150
1631204137983,54399,332273,324146
1631204137993,54420,332225,324144
1631204138003,54424,332265,324146
1631204138013,54425,332264,324191
1631204138023,54431,332246,324173
1631204138033,54445,332224,324186
1631204138043,54440,332254,324157
1631204138053,54412,332201,324173
1631204138063,54406,332183,324127
1631204138073,54388,332188,324129
1631204138083,54361,332188,324122
1631204138093,54336,332099,324103
1631204138103,54327,332136,324152
1631204138113,54325,332105,324182
1631204138123,54314,332107,324206
1631204138133,54315,332117,324209
1631204138143,54301,332142,324211
1631204138153,54297,332112,324232
1631204138163,54276,332127,324268
1631204138173,54277,332093,324245
1631204138183,54250,332056,324231
1631204138193,54231,332041,324201
1631204138203,54206,332039,324196
1631204138213,54191,332019,324175
1631204138223,54163,331978,324157
1631204138233,54154,331978,324127
1631204138243,54125,331945,324123
1631204138253,54126,331969,324136
1631204138263,54110,331970,324092
1631204138273,54098,331939,324092
1631204138283,54088,331973,324097
1631204138293,54091,331949,324093
1631204138303,54088,331943,324082
1631204138313,54081,331971,324086
1631204138323,54098,331933,324096
1631204138333,54066,331877,324099
1631204138343,54067,331891,324084
1631204138353,54066,331855,324089
1631204138363,54063,331906,324052
1631204138373,54042,331873,324053
1631204138383,54040,331908,324030
1631204138393,54036,331846,324035
1631204138403,54032,331887,324031
1631204138413,54020,331887,324013
1631204138423,54022,331831,324035
1631204138433,54013,331866,324002
1631204138443,54000,331827,323983
1631204138453,54004,331852,323972
1631204138463,54007,331916,323975
1631204138473,54005,331869,323983
1631204138483,54019,331815,323990
1631204138493,54029,331873,324003
1631204138503,54034,331853,324005
1631204138513,54025,331871,323979
1631204138523,54031,331868,324027
1631204138533,54036,331831,324029
1631204138543,54032,331850,323999
1631204138553,54043,331915,324000
1631204138563,54044,331840,324010
1631204138573,54050,331839,323997
1631204138583,54064,331868,324000
1631204138593,54054,331895,324019
1631204138603,54070,331940,323997
1631204138613,54073,331895,324020
1631204138623,54081,331897,323967
1631204138633,54088,331871,323960
1631204138643,54094,331924,323973
1631204138653,54076,331898,323993
1631204138663,54091,331945,323961
1631204138673,54106,331918,323997
1631204138683,54116,331899,323978
1631204138693,54108,331912,324008
1631204138703,54139,331930,324026
1631204138713,54141,331960,324013
1631204138723,54158,331978,324004
1631204138733,54163,331981,324006
1631204138743,54171,331968,324049
1631204138753,54175,331953,324069
1631204138763,54185,332022,324070
1631204138773,54199,331999,324073
1631204138783,54208,331999,324079
1631204138793,54214,332008,324088
1631204138803,54237,332059,324090
1631204138813,54233,332052,324105
1631204138823,54244,332028,324080
1631204138833,54256,332040,324065
1631204138843,54267,332055,324102
1631204138853,54261,332062,324063
1631204138863,54271,332073,324076
1631204138873,54294,332044,324131
1631204138883,54298,332087,324114
1631204138893,54315,332107,324129
1631204138903,54328,332059,324100
1631204138913,54325,332111,324112
1631204138923,54318,332059,324072
1631204138933,54319,332050,324020
1631204138943,54318,332053,324059
1631204138953,54303,332045,324071
1631204138963,54299,332014,324032
1631204138973,54280,331968,324002
1631204138983,54268,331974,324006
1631204138993,54239,331972,324005
1631204139003,54226,331943,324035
1631204139013,54203,331961,324050
1631204139023,54194,331988,323978
1631204139033,54169,331929,324015
1631204139043,54170,331868,323973
1631204139053,54148,331896,323995
1631204139063,54143,331901,323964
1631204139073,54122,331862,323964
1631204139083,54118,331854,323957
1631204139093,54107,331852,323968
1631204139103,54095,331861,323955
1631204139113,54082,331809,323962
1631204139123,54083,331852,323939
1631204139133,54071,331867,323940
1631204139143,54056,331794,323951
1631204139153,54045,331862,323941
1631204139163,54052,331828,323941
1631204139173,54045,331808,323938
1631204139183,54045,331802,323949
1631204139193,54039,331815,323958
1631204139203,54032,331825,323936
1631204139213,54033,331824,323931
1631204139223,54022,331754,323908
1631204139233,54015,331805,323937
1631204139243,54005,331800,323895
1631204139253,54002,331789,323878
1631204139263,53996,331773,323861
1631204139273,53988,331768,323860
1631204139283,53984,331744,323856
1631204139293,53976,331786,323868
1631204139303,53992,331751,323860
1631204139313,53996,331758,323860
1631204139323,53992,331760,323873
1631204139333,53995,331763,323855
1631204139343,53986,331781,323894
1631204139353,53987,331791,323880
1631204139363,53998,331777,323919
1631204139373,54013,331809,323926
1631204139383,54018,331815,323880
1631204139393,54013,331806,323904
1631204139403,54026,331796,323928
1631204139413,54027,331839,323912
1631204139423,54031,331777,323922
1631204139433,54037,331819,323943
1631204139443,54046,331811,323914
1631204139453,54048,331837,323917
1631204139463,54059,331869,323926
1631204139473,54080,331825,323972
1631204139483,54073,331866,323946
1631204139493,54087,331833,323975
1631204139503,54100,331829,323939
1631204139513,54100,331870,323984
1631204139523,54109,331857,323971
1631204139533,54114,331882,324010
1631204139543,54126,331874,323986
1631204139553,54130,331855,323995
1631204139563,54137,331886,324004
1631204139573,54146,331913,324002
1631204139583,54155,331920,324014
1631204139593,54162,331933,324027
1631204139603,54165,331916,324018
1631204139613,54182,331925,324059
1631204139623,54175,331954,324031
1631204139633,54197,331943,324027
1631204139643,54192,331914,324046
1631204139653,54205,331996,324024
1631204139663,54204,331955,324034
1631204139673,54223,331988,324034
1631204139683,54229,332006,324021
1631204139693,54244,331972,324069
1631204139703,54250,332012,324087
1631204139713,54253,332016,324057
1631204139723,54264,332044,324044
1631204139733,54270,332019,324054
1631204139743,54276,332067,324052
1631204139753,54283,332027,324058
1631204139763,54293,332041,324033
1631204139773,54314,332086,324061
1631204139783,54331,332062,324050
1631204139793,54331,332047,324068
1631204139803,54345,332098,324087
1631204139813,54340,332076,324019
1631204139823,54336,332053,324026
1631204139833,54324,332029,324050
1631204139843,54304,332001,324039
1631204139853,54296,331976,324018
1631204139863,54274,331964,324006
1631204139873,54254,331901,323953
1631204139883,54237,331900,323970
1631204139893,54217,331908,323990
1631204139903,54199,331892,323948
1631204139913,54176,331863,324013
1631204139923,54154,331867,323932
1631204139933,54147,331857,323919
1631204139943,54142,331828,323929
1631204139953,54129,331827,323880
1631204139963,54104,331831,323872
1631204139973,54094,331812,323891
1631204139983,54064,331759,323870
1631204139993,54070,331796,323865
1631204140003,54058,331792,323858
1631204140013,54047,331755,323874
1631204140023,54030,331769,323854
1631204140033,54032,331742,323868
1631204140043,54003,331722,323854
1631204140053,54010,331795,323856
1631204140063,54006,331742,323884
1631204140073,54010,331759,323839
1631204140083,54012,331771,323867
1631204140093,54007,331779,323844
1631204140103,54011,331832,323886
1631204140113,54036,331753,323920
1631204140123,54034,331808,323922
1631204140133,54033,331802,323935
1631204140143,54050,331845,323979
1631204140153,54053,331828,323978
1631204140163,54064,331905,324052
1631204140173,54068,331828,324035
1631204140183,54070,331853,324025
1631204140193,54068,331835,324015
1631204140203,54073,331822,324023
1631204140213,54072,331858,324050
1631204140223,54066,331832,324022
1631204140233,54069,331845,324030
1631204140243,54075,331837,324073
1631204140253,54072,331861,324046
1631204140263,54085,331844,324054
1631204140273,54076,331853,324067
1631204140283,54097,331869,324062
1631204140293,54098,331821,324117
1631204140303,54107,331862,324101
1631204140313,54119,331864,324067
1631204140323,54129,331836,324103
1631204140333,54132,331891,324131
1631204140343,54152,331857,324163
1631204140353,54164,331931,324169
1631204140363,54178,331910,324196
1631204140373,54200,331958,324201
1631204140383,54203,331940,324209
1631204140393,54220,331980,324254
1631204140403,54236,331971,324267
1631204140413,54250,332058,324299
1631204140423,54274,331972,324305
1631204140433,54273,332014,324275
1631204140443,54272,332034,324319
1631204140453,54281,332055,324288
1631204140463,54302,332034,324311
1631204140473,54287,332042,324310
1631204140483,54304,332043,324308
1631204140493,54310,332047,324309
1631204140503,54310,332066,324291
1631204140513,54327,332060,324319
1631204140523,54338,331992,324277
1631204140533,54335,332045,324301
1631204140543,54345,332065,324293
1631204140553,54348,332036,324282
1631204140563,54357,332045,324281
1631204140573,54360,332046,324281
1631204140583,54358,332028,324275
1631204140593,54372,332026,324297
1631204140603,54367,332073,324286
1631204140613,54389,332092,324305
1631204140623,54382,332045,324271
1631204140633,54395,332081,324285
1631204140643,54401,332130,324302
1631204140653,54434,332079,324324
1631204140663,54439,332133,324322
1631204140673,54450,332150,324371
1631204140683,54454,332186,324343
1631204140693,54462,332111,324311
1631204140703,54468,332105,324324
1631204140713,54456,332145,324287
1631204140723,54447,332103,324291
1631204140733,54429,332064,324270
1631204140743,54418,332025,324276
1631204140753,54401,331985,324299
1631204140763,54385,332004,324260
1631204140773,54361,331951,324259
1631204140783,54326,331926,324219
1631204140793,54306,331894,324250
1631204140803,54286,331985,324189
1631204140813,54278,331881,324200
1631204140823,54261,331922,324182
1631204140833,54238,331930,324204
1631204140843,54234,331875,324186
1631204140853,54209,331851,324159
1631204140863,54185,331842,324151
1631204140873,54168,331834,324166
1631204140883,54155,331858,324130
1631204140893,54149,331811,324120
1631204140903,54145,331777,324151
1631204140913,54130,331866,324127
1631204140923,54113,331788,324122
1631204140933,54122,331764,324124
1631204140943,54089,331747,324109
1631204140953,54070,331739,324079
1631204140963,54059,331750,324082
1631204140973,54068,331765,324035
1631204140983,54063,331772,324040
1631204140993,54060,331709,324076
1631204141003,54042,331698,324041
1631204141013,54047,331743,324051
1631204141023,54041,331655,324017
1631204141033,54029,331695,324040
1631204141043,54034,331707,324034
1631204141053,54030,331675,324044
1631204141063,54037,331683,324058
1631204141073,54020,331674,324050
1631204141083,54037,331631,324061
1631204141093,54024,331682,324044
1631204141103,54031,331705,324038
1631204141113,54037,331674,324049
1631204141123,54038,331691,324085
1631204141133,54037,331719,324072
1631204141143,54052,331701,324080
1631204141153,54048,331720,324074
1631204141163,54055,331719,324053
1631204141173,54061,331675,324063
1631204141183,54054,331695,324073
1631204141193,54063,331688,324110
1631204141203,54081,331723,324071
1631204141213,54085,331719,324113
1631204141223,54091,331709,324118
1631204141233,54110,331715,324100
1631204141243,54105,331737,324086
1631204141253,54101,331718,324084
1631204141263,54105,331709,324120
1631204141273,54112,331739,324114
1631204141283,54113,331704,324106
1631204141293,54111,331734,324088
1631204141303,54125,331800,324100
1631204141313,54139,331724,324108
1631204141323,54139,331774,324078
1631204141333,54154,331807,324109
1631204141343,54160,331776,324175
1631204141353,54170,331835,324134
1631204141363,54186,331789,324139
1631204141373,54190,331815,324165
1631204141383,54194,331828,324194
1631204141393,54197,331822,324151
1631204141403,54202,331832,324159
1631204141413,54212,331847,324180
1631204141423,54219,331808,324142
1631204141433,54240,331832,324131
1631204141443,54227,331845,324139
1631204141453,54232,331820,324138
1631204141463,54260,331833,324176
1631204141473,54261,331860,324191
1631204141483,54276,331889,324172
1631204141493,54285,331839,324198
1631204141503,54292,331852,324202
1631204141513,54295,331868,324186
1631204141523,54308,331905,324191
1631204141533,54318,331938,324218
1631204141543,54335,331914,324202
1631204141553,54349,331888,324258
1631204141563,54366,331907,324260
1631204141573,54376,331955,324238
1631204141583,54376,331950,324243
1631204141593,54385,331944,324224
1631204141603,54403,331944,324284
1631204141613,54401,331965,324260
1631204141623,54391,331968,324275
1631204141633,54380,331946,324289
1631204141643,54375,331885,324309
1631204141653,54359,331872,324255
1631204141663,54344,331806,324256
1631204141673,54318,331852,324264
1631204141683,54309,331843,324299
1631204141693,54272,331840,324258
1631204141703,54265,331792,324201
1631204141713,54272,331823,324277
1631204141723,54257,331841,324229
1631204141733,54236,331724,324218
1631204141743,54231,331763,324221
1631204141753,54225,331751,324209
1631204141763,54200,331738,324233
1631204141773,54197,331734,324217
1631204141783,54197,331765,324226
1631204141793,54187,331760,324225
1631204141803,54185,331729,324219
1631204141813,54167,331714,324220
1631204141823,54155,331736,324213
1631204141833,54133,331679,324185
1631204141843,54129,331702,324192
1631204141853,54121,331668,324189
1631204141863,54123,331683,324185
1631204141873,54124,331673,324165
1631204141883,54117,331696,324163
1631204141893,54135,331648,324160
1631204141903,54117,331704,324134
1631204141913,54125,331678,324141
1631204141923,54111,331673,324170
1631204141933,54117,331706,324109
1631204141943,54111,331638,324166
1631204141953,54100,331630,324162
1631204141963,54110,331662,324192
1631204141973,54107,331616,324164
1631204141983,54102,331685,324154
1631204141993,54105,331616,324164
1631204142003,54102,331652,324193
1631204142013,54103,331674,324158
1631204142023,54100,331641,324155
1631204142033,54106,331681,324162
1631204142043,54110,331676,324153
1631204142053,54114,331631,324140
1631204142063,54129,331687,324152
1631204142073,54114,331655,324158
1631204142083,54115,331653,324134
1631204142093,54124,331636,324158
1631204142103,54135,331693,324189
1631204142113,54140,331649,324176
1631204142123,54148,331720,324153
1631204142133,54164,331695,324191
1631204142143,54173,331699,324182
1631204142153,54171,331735,324184
1631204142163,54176,331720,324181
1631204142173,54183,331731,324189
1631204142183,54196,331700,324190
1631204142193,54213,331710,324193
1631204142203,54214,331763,324269
1631204142213,54228,331746,324204
1631204142223,54238,331746,324232
1631204142233,54241,331746,324272
1631204142243,54246,331791,324260
1631204142253,54257,331777,324275
1631204142263,54263,331769,324266
1631204142273,54263,331759,324261
1631204142283,54295,331775,324310
1631204142293,54296,331769,324290
1631204142303,54305,331781,324310
1631204142313,54318,331805,324313
1631204142323,54324,331802,324288
1631204142333,54325,331814,324317
1631204142343,54329,331844,324310
1631204142353,54344,331838,324328
1631204142363,54344,331860,324303
1631204142373,54358,331870,324346
1631204142383,54375,331867,324330
1631204142393,54386,331877,324345
1631204142403,54383,331882,324365
1631204142413,54397,331847,324375
1631204142423,54401,331890,324387
1631204142433,54413,331883,324353
1631204142443,54414,331884,324344
1631204142453,54425,331877,324350
1631204142463,54432,331862,324344
1631204142473,54426,331851,324375
1631204142483,54421,331852,324354
1631204142493,54412,331828,324346
1631204142503,54393,331832,324360
1631204142513,54383,331783,324375
1631204142523,54363,331770,324357
1631204142533,54364,331790,324393
1631204142543,54363,331807,324357
1631204142553,54339,331804,324385
1631204142563,54329,331808,324434
1631204142573,54323,331768,324447
1631204142583,54311,331735,324406
1631204142593,54303,331722,324397
1631204142603,54292,331704,324365
1631204142613,54264,331711,324355
1631204142623,54256,331737,324374
1631204142633,54245,331663,324344
1631204142643,54242,331627,324314
1631204142653,54209,331653,324315
1631204142663,54192,331669,324338
1631204142673,54188,331606,324288
1631204142683,54175,331652,324292
1631204142693,54164,331657,324253
1631204142703,54142,331617,324225
1631204142713,54148,331601,324236
1631204142723,54150,331580,324222
1631204142733,54134,331623,324209
1631204142743,54138,331578,324210
1631204142753,54117,331575,324187
1631204142763,54121,331521,324153
1631204142773,54109,331563,324170
1631204142783,54102,331523,324149
1631204142793,54095,331525,324167
1631204142803,54093,331507,324165
1631204142813,54078,331541,324130
1631204142823,54081,331449,324124
1631204142833,54078,331494,324124
1631204142843,54077,331497,324143
1631204142853,54070,331509,324100
1631204142863,54075,331522,324126
1631204142873,54083,331478,324111
1631204142883,54086,331534,324064
1631204142893,54073,331529,324099
1631204142903,54081,331501,324129
1631204142913,54091,331524,324129
1631204142923,54090,331481,324131
1631204142933,54099,331514,324138
1631204142943,54108,331479,324150
1631204142953,54108,331514,324152
1631204142963,54108,331575,324168
1631204142973,54118,331562,324140
1631204142983,54120,331555,324168
1631204142993,54121,331537,324112
1631204143003,54143,331558,324164
1631204143013,54130,331531,324147
1631204143023,54130,331539,324132
1631204143033,54150,331524,324127
1631204143043,54156,331571,324148
1631204143053,54157,331558,324153
1631204143063,54170,331576,324165
1631204143073,54176,331557,324148
1631204143083,54184,331579,324108
1631204143093,54182,331555,324155
1631204143103,54196,331606,324152
1631204143113,54203,331643,324178
1631204143123,54210,331595,324118
1631204143133,54227,331638,324186
1631204143143,54220,331597,324205
1631204143153,54236,331640,324199
1631204143163,54236,331632,324198
1631204143173,54263,331650,324195
1631204143183,54261,331686,324196
1631204143193,54271,331668,324211
1631204143203,54281,331715,324204
1631204143213,54289,331681,324179
1631204143223,54296,331712,324203
1631204143233,54309,331725,324240
1631204143243,54319,331715,324230
1631204143253,54330,331702,324221
1631204143263,54346,331730,324204
1631204143273,54353,331668,324240
1631204143283,54367,331750,324288
1631204143293,54378,331744,324255
1631204143303,54385,331797,324264
1631204143313,54401,331818,324324
1631204143323,54409,331750,324294
1631204143333,54405,331784,324248
1631204143343,54411,331762,324258
1631204143353,54415,331772,324242
1631204143363,54408,331727,324256
1631204143373,54396,331725,324266
1631204143383,54380,331659,324255
1631204143393,54369,331687,324260
1631204143403,54352,331691,324278
1631204143413,54351,331688,324253
1631204143423,54330,331677,324292
1631204143433,54315,331652,324306
1631204143443,54296,331655,324276
1631204143453,54280,331597,324269
1631204143463,54259,331644,324279
1631204143473,54250,331569,324245
1631204143483,54252,331579,324270
1631204143493,54242,331529,324228
1631204143503,54220,331593,324243
1631204143513,54201,331558,324241
1631204143523,54189,331524,324200
1631204143533,54160,331553,324201
1631204143543,54159,331564,324191
1631204143553,54146,331478,324180
1631204143563,54129,331491,324227
1631204143573,54123,331491,324208
1631204143583,54110,331534,324201
1631204143593,54107,331477,324212
1631204143603,54102,331488,324209
1631204143613,54093,331438,324192
1631204143623,54088,331506,324204
1631204143633,54095,331470,324227
1631204143643,54094,331471,324244
1631204143653,54089,331483,324206
1631204143663,54087,331436,324213
1631204143673,54099,331483,324238
1631204143683,54103,331495,324264
1631204143693,54096,331506,324227
1631204143703,54083,331448,324266
1631204143713,54101,331446,324244
1631204143723,54081,331492,324225
1631204143733,54097,331485,324239
1631204143743,54094,331516,324251
1631204143753,54093,331503,324244
1631204143763,54094,331479,324279
1631204143773,54101,331537,324292
1631204143783,54109,331552,324262
1631204143793,54109,331538,324285
1631204143803,54111,331542,324347
1631204143813,54123,331504,324333
1631204143823,54125,331545,324293
1631204143833,54130,331541,324286
1631204143843,54134,331515,324298
1631204143853,54139,331516,324283
1631204143863,54149,331481,324302
1631204143873,54155,331500,324304
1631204143883,54156,331525,324307
1631204143893,54160,331504,324319
1631204143903,54160,331540,324318
1631204143913,54169,331543,324352
1631204143923,54173,331528,324327
1631204143933,54178,331552,324300
1631204143943,54176,331551,324322
1631204143953,54186,331578,324293
1631204143963,54185,331575,324311
1631204143973,54197,331568,324313
1631204143983,54220,331564,324329
1631204143993,54220,331615,324322
1631204144003,54218,331600,324358
1631204144013,54225,331587,324316
1631204144023,54233,331590,324321
1631204144033,54244,331572,324314
1631204144043,54250,331625,324301
1631204144053,54258,331630,324343
1631204144063,54276,331633,324365
1631204144073,54282,331598,324320
1631204144083,54281,331593,324336
1631204144093,54275,331649,324348
1631204144103,54291,331601,324309
1631204144113,54278,331626,324275
1631204144123,54297,331644,324307
1631204144133,54293,331644,324311
1631204144143,54321,331634,324280
1631204144153,54334,331697,324279
1631204144163,54336,331675,324306
1631204144173,54339,331696,324351
1631204144183,54353,331693,324304
1631204144193,54371,331709,324327
1631204144203,54374,331659,324316
1631204144213,54382,331709,324334
1631204144223,54387,331690,324321
1631204144233,54388,331705,324328
1631204144243,54386,331677,324347
1631204144253,54391,331699,324316
1631204144263,54377,331640,324296
1631204144273,54367,331632,324291
1631204144283,54334,331627,324258
1631204144293,54332,331587,324249
1631204144303,54298,331546,324245
1631204144313,54276,331544,324255
1631204144323,54262,331555,324198
1631204144333,54228,331516,324176
1631204144343,54205,331453,324164
1631204144353,54211,331448,324103
1631204144363,54173,331422,324115
1631204144373,54146,331402,324115
1631204144383,54140,331387,324073
1631204144393,54110,331409,324028
1631204144403,54100,331339,324035
1631204144413,54069,331345,324019
1631204144423,54042,331329,323967
1631204144433,54030,331305,323956
1631204144443,54027,331267,323966
1631204144453,54012,331252,323929
1631204144463,54002,331216,323949
1631204144473,53984,331293,323924
1631204144483,53993,331271,323926
1631204144493,53967,331261,323908
1631204144503,53961,331254,323927
1631204144513,53960,331280,323911
1631204144523,53958,331263,323885
1631204144533,53949,331248,323875
1631204144543,53947,331235,323885
1631204144553,53936,331228,323848
1631204144563,53928,331219,323836
1631204144573,53920,331216,323844
1631204144583,53904,331204,323780
1631204144593,53896,331205,323805
1631204144603,53882,331139,323718
1631204144613,53870,331129,323711
1631204144623,53865,331131,323688
1631204144633,53868,331122,323679
1631204144643,53872,331117,323669
1631204144653,53863,331143,323677
1631204144663,53855,331101,323677
1631204144673,53856,331111,323652
1631204144683,53852,331100,323631
1631204144693,53850,331065,323591
1631204144703,53846,331076,323601
1631204144713,53850,331097,323572
1631204144723,53847,331064,323531
1631204144733,53838,331070,323484
1631204144743,53825,331072,323516
1631204144753,53824,331047,323468
1631204144763,53813,331050,323480
1631204144773,53813,331067,323434
1631204144783,53816,331030,323387
1631204144793,53814,331040,323399
1631204144803,53828,331035,323414
1631204144813,53831,331072,323400
1631204144823,53849,331034,323406
1631204144833,53848,331048,323397
1631204144843,53849,331040,323408
1631204144853,53855,331080,323413
1631204144863,53859,331067,323402
1631204144873,53864,331019,323395
1631204144883,53863,331058,323381
1631204144893,53863,331024,323336
1631204144903,53861,331093,323361
1631204144913,53871,331077,323318
1631204144923,53882,331088,323343
1631204144933,53882,331037,323337
1631204144943,53889,331074,323365
1631204144953,53917,331112,323354
1631204144963,53924,331083,323360
1631204144973,53937,331081,323357
1631204144983,53919,331100,323346
1631204144993,53938,331094,323340
1631204145003,53932,331097,323376
1631204145013,53948,331085,323374
1631204145023,53967,331124,323345
1631204145033,53967,331129,323367
1631204145043,53979,331163,323364
1631204145053,53986,331124,323378
1631204145063,53997,331171,323333
1631204145073,53989,331152,323311
1631204145083,53995,331140,323336
1631204145093,54005,331195,323331
1631204145103,54016,331195,323312
1631204145113,54023,331176,323298
1631204145123,54017,331187,323312
1631204145133,54029,331145,323304
1631204145143,54028,331201,323285
1631204145153,54017,331115,323252
1631204145163,54003,331093,323256
1631204145173,53986,331075,323252
1631204145183,53967,331101,323206
1631204145193,53964,331039,323227
1631204145203,53942,331048,323190
1631204145213,53923,331044,323171
1631204145223,53895,331007,323186
1631204145233,53887,330938,323172
1631204145243,53865,330973,323132
1631204145253,53855,330980,323126
1631204145263,53836,330929,323081
1631204145273,53832,330964,323072
1631204145283,53825,330951,323074
1631204145293,53797,330900,323054
1631204145303,53793,330929,323035
1631204145313,53782,330881,323021
1631204145323,53760,330892,322984
1631204145333,53744,330906,322975
1631204145343,53740,330862,322991
1631204145353,53730,330844,322963
1631204145363,53728,330906,322966
1631204145373,53715,330826,322947
1631204145383,53709,330830,322906
1631204145393,53704,330838,322908
1631204145403,53681,330781,322864
1631204145413,53668,330771,322860
1631204145423,53650,330780,322784
1631204145433,53638,330751,322788
1631204145443,53635,330690,322765
1631204145453,53634,330714,322722
1631204145463,53635,330736,322734
1631204145473,53619,330751,322714
1631204145483,53615,330705,322722
1631204145493,53623,330716,322712
1631204145503,53602,330717,322690
1631204145513,53597,330745,322669
1631204145523,53579,330680,322658
1631204145533,53593,330671,322608
1631204145543,53586,330674,322610
1631204145553,53588,330670,322566
1631204145563,53588,330645,322608
1631204145573,53589,330635,322582
1631204145583,53586,330661,322605
1631204145593,53582,330668,322580
1631204145603,53593,330667,322580
1631204145613,53604,330639,322572
1631204145623,53610,330714,322606
1631204145633,53622,330686,322645
1631204145643,53641,330678,322647
1631204145653,53667,330712,322746
1631204145663,53698,330739,322794
1631204145673,53730,330773,322861
1631204145683,53762,330810,322919
1631204145693,53785,330859,322984
1631204145703,53792,330860,322984
1631204145713,53821,330882,323016
1631204145723,53849,330922,323050
1631204145733,53874,330908,323087
1631204145743,53875,330906,323092
1631204145753,53871,330917,323061
1631204145763,53888,330900,323075
1631204145773,53867,330877,323023
1631204145783,53890,330890,322984
1631204145793,53881,330792,322954
1631204145803,53875,330814,322970
1631204145813,53871,330781,322904
1631204145823,53867,330792,322897
1631204145833,53861,330784,322888
1631204145843,53869,330826,322906
1631204145853,53865,330817,322882
1631204145863,53874,330807,322889
1631204145873,53868,330807,322866
1631204145883,53865,330788,322843
1631204145893,53862,330771,322838
1631204145903,53861,330746,322811
1631204145913,53858,330766,322812
1631204145923,53870,330776,322765
1631204145933,53869,330746,322769
1631204145943,53865,330736,322787
1631204145953,53875,330738,322777
1631204145963,53897,330802,322822
1631204145973,53914,330787,322845
1631204145983,53941,330844,322865
1631204145993,53965,330869,322940
1631204146003,53984,330881,322979
1631204146013,54013,330879,323030
1631204146023,54021,330888,323005
1631204146033,54034,330896,323014
1631204146043,54035,330841,323047
1631204146053,54033,330907,323086
1631204146063,54023,330845,323089
1631204146073,54002,330821,323089
1631204146083,53979,330803,323091
1631204146093,53987,330793,323069
1631204146103,53969,330802,323140
1631204146113,53965,330783,323080
1631204146123,53934,330810,323091
1631204146133,53905,330690,323053
1631204146143,53883,330660,323019
1631204146153,53859,330655,322997
1631204146163,53841,330641,322976
1631204146173,53818,330619,322927
1631204146183,53792,330543,322916
1631204146193,53756,330500,322881
1631204146203,53730,330513,322835
1631204146213,53714,330520,322799
1631204146223,53691,330449,322770
1631204146233,53666,330446,322800
1631204146243,53659,330412,322750
1631204146253,53648,330405,322750
1631204146263,53632,330415,322736
1631204146273,53622,330402,322734
1631204146283,53602,330365,322723
1631204146293,53595,330393,322699
1631204146303,53582,330367,322705
1631204146313,53573,330342,322680
1631204146323,53564,330335,322627
1631204146333,53527,330280,322602
1631204146343,53518,330230,322578
1631204146353,53491,330263,322512
1631204146363,53476,330163,322486
1631204146373,53446,330165,322441
1631204146383,53428,330162,322418
1631204146393,53408,330190,322344
1631204146403,53386,330109,322320
1631204146413,53371,330080,322313
1631204146423,53366,330053,322271
1631204146433,53342,330080,322266
1631204146443,53321,330028,322206
1631204146453,53308,330001,322119
1631204146463,53285,329973,322096
1631204146473,53279,329954,322117
1631204146483,53270,329948,322078
1631204146493,53260,329897,322047
1631204146503,53239,329926,322020
1631204146513,53244,329925,322027
1631204146523,53240,329862,322023
1631204146533,53245,329897,322027
1631204146543,53252,329907,322026
1631204146553,53270,329956,322038
1631204146563,53286,329967,322105
1631204146573,53317,329977,322142
1631204146583,53327,330033,322222
1631204146593,53374,330031,322238
1631204146603,53409,330067,322293
1631204146613,53423,330130,322379
1631204146623,53452,330138,322450
1631204146633,53484,330186,322513
1631204146643,53517,330224,322549
1631204146653,53576,330260,322639
1631204146663,53583,330357,322719
1631204146673,53619,330309,322741
1631204146683,53646,330351,322798
1631204146693,53648,330409,322818
1631204146703,53665,330372,322845
1631204146713,53667,330388,322820
1631204146723,53659,330363,322783
1631204146733,53663,330386,322778
1631204146743,53688,330402,322813
1631204146753,53687,330404,322795
1631204146763,53689,330457,322793
1631204146773,53694,330413,322786
1631204146783,53714,330440,322815
1631204146793,53726,330488,322826
1631204146803,53745,330487,322834
1631204146813,53754,330500,322833
1631204146823,53779,330535,322831
1631204146833,53824,330578,322955
1631204146843,53866,330643,323035
1631204146853,53907,330637,323111
1631204146863,53934,330710,323201
1631204146873,53964,330739,323201
1631204146883,53980,330759,323251
1631204146893,54012,330792,323262
1631204146903,54009,330797,323291
1631204146913,54016,330785,323272
1631204146923,54041,330803,323320
1631204146933,54034,330823,323306
1631204146943,54018,330763,323321
1631204146953,54013,330709,323329
1631204146963,54010,330743,323370
1631204146973,54005,330725,323371
1631204146983,53994,330739,323393
1631204146993,53977,330671,323387
1631204147003,53962,330728,323352
1631204147013,53942,330657,323392
1631204147023,53926,330652,323347
1631204147033,53920,330686,323364
1631204147043,53907,330660,323354
1631204147053,53898,330693,323340
1631204147063,53880,330630,323357
1631204147073,53865,330627,323325
1631204147083,53843,330629,323306
1631204147093,53832,330644,323305
1631204147103,53826,330615,323336
1631204147113,53830,330610,323312
1631204147123,53825,330589,323342
1631204147133,53832,330648,323362
1631204147143,53825,330660,323386
1631204147153,53829,330661,323396
1631204147163,53836,330697,323409
1631204147173,53827,330604,323385
1631204147183,53820,330653,323438
1631204147193,53811,330652,323419
1631204147203,53793,330651,323376
1631204147213,53789,330631,323323
1631204147223,53793,330589,323307
1631204147233,53755,330554,323276
1631204147243,53730,330542,323229
1631204147253,53734,330553,323212
1631204147263,53721,330535,323214
1631204147273,53719,330525,323184
1631204147283,53711,330553,323234
1631204147293,53720,330548,323218
1631204147303,53714,330549,323197
1631204147313,53707,330557,323202
1631204147323,53693,330530,323147
1631204147333,53693,330523,323125
1631204147343,53692,330515,323165
1631204147353,53677,330523,323133
1631204147363,53670,330518,323061
1631204147373,53665,330485,323085
1631204147383,53676,330496,323096
1631204147393,53666,330505,323080
1631204147403,53673,330467,323041
1631204147413,53667,330543,323055
1631204147423,53682,330516,323060
1631204147433,53670,330513,323034
1631204147443,53681,330552,323036
1631204147453,53685,330503,323029
1631204147463,53696,330490,323048
1631204147473,53707,330543,323047
1631204147483,53713,330522,323040
1631204147493,53725,330567,323063
1631204147503,53716,330551,323069
1631204147513,53732,330534,323028
1631204147523,53728,330545,323040
1631204147533,53725,330554,323057
1631204147543,53724,330555,323031
1631204147553,53738,330541,323016
1631204147563,53727,330634,323016
1631204147573,53757,330598,323036
1631204147583,53757,330584,323009
1631204147593,53748,330591,323028
1631204147603,53757,330551,323056
1631204147613,53771,330618,322952
1631204147623,53779,330620,323032
1631204147633,53769,330609,322989
1631204147643,53776,330605,323016
1631204147653,53795,330645,322980
1631204147663,53797,330675,323019
1631204147673,53810,330648,323024
1631204147683,53816,330627,322985
1631204147693,53825,330656,323033
1631204147703,53841,330641,323018
1631204147713,53842,330676,323049
1631204147723,53863,330702,323024
1631204147733,53864,330718,323062
1631204147743,53874,330747,323036
1631204147753,53879,330753,323036
1631204147763,53881,330730,323039
1631204147773,53880,330719,323024
1631204147783,53874,330704,323015
1631204147793,53875,330647,323002
1631204147803,53856,330599,322957
1631204147813,53850,330611,322934
1631204147823,53813,330589,322934
1631204147833,53798,330572,322919
1631204147843,53788,330597,322908
1631204147853,53777,330551,322868
1631204147863,53753,330577,322922
1631204147873,53729,330555,322876
1631204147883,53722,330502,322895
1631204147893,53719,330540,322882
1631204147903,53712,330526,322851
1631204147913,53696,330571,322841
1631204147923,53698,330520,322836
1631204147933,53684,330516,322843
1631204147943,53678,330559,322872
1631204147953,53670,330533,322916
1631204147963,53661,330564,322866
1631204147973,53665,330512,322865
1631204147983,53658,330574,322915
1631204147993,53653,330547,322889
1631204148003,53647,330475,322873
1631204148013,53630,330495,322885
1631204148023,53640,330528,322853
1631204148033,53643,330526,322880
1631204148043,53638,330532,322882
1631204148053,53638,330494,322856
1631204148063,53638,330515,322900
1631204148073,53634,330573,322867
1631204148083,53628,330552,322876
1631204148093,53630,330530,322892
1631204148103,53639,330549,322897
1631204148113,53642,330503,322885
1631204148123,53647,330524,322870
1631204148133,53623,330563,322927
1631204148143,53634,330534,322913
1631204148153,53620,330494,322921
1631204148163,53617,330540,322879
1631204148173,53615,330550,322858
1631204148183,53628,330538,322849
1631204148193,53617,330575,322896
1631204148203,53642,330583,322864
1631204148213,53655,330595,322885
1631204148223,53653,330613,322936
1631204148233,53663,330607,322916
1631204148243,53668,330618,322935
1631204148253,53673,330545,322937
1631204148263,53666,330574,322941
1631204148273,53688,330624,322926
1631204148283,53686,330630,322877
1631204148293,53696,330591,322891
1631204148303,53700,330625,322926
1631204148313,53708,330640,322906
1631204148323,53698,330596,322894
1631204148333,53712,330662,322924
1631204148343,53730,330654,322944
1631204148353,53745,330641,322935
1631204148363,53723,330675,322899
1631204148373,53740,330702,322907
1631204148383,53743,330629,322923
1631204148393,53749,330675,322872
1631204148403,53754,330705,322922
1631204148413,53763,330729,322924
1631204148423,53761,330691,322911
1631204148433,53764,330687,322894
1631204148443,53763,330705,322858
1631204148453,53778,330692,322897
1631204148463,53785,330674,322920
1631204148473,53783,330714,322896
1631204148483,53792,330720,322895
1631204148493,53784,330683,322888
1631204148503,53791,330739,322843
1631204148513,53794,330684,322822
1631204148523,53784,330699,322837
1631204148533,53800,330687,322818
1631204148543,53802,330676,322817
1631204148553,53794,330695,322763
1631204148563,53787,330720,322766
1631204148573,53761,330661,322738
1631204148583,53761,330636,322666
1631204148593,53765,330695,322631
1631204148603,53755,330651,322555
1631204148613,53736,330664,322571
1631204148623,53741,330580,322610
1631204148633,53731,330614,322546
1631204148643,53719,330614,322567
1631204148653,53694,330580,322519
1631204148663,53679,330485,322491
1631204148673,53662,330510,322489
1631204148683,53634,330516,322460
1631204148693,53608,330453,322408
1631204148703,53580,330480,322414
1631204148713,53570,330450,322371
1631204148723,53555,330444,322384
1631204148733,53539,330412,322324
1631204148743,53509,330424,322298
1631204148753,53506,330377,322339
1631204148763,53492,330428,322268
1631204148773,53452,330387,322271
1631204148783,53452,330320,322226
1631204148793,53433,330349,322228
1631204148803,53423,330294,322230
1631204148813,53415,330327,322251
1631204148823,53395,330369,322214
1631204148833,53399,330330,322237
1631204148843,53408,330288,322248
1631204148853,53410,330331,322316
1631204148863,53405,330352,322283
1631204148873,53408,330351,322265
1631204148883,53399,330324,322295
1631204148893,53396,330391,322269
1631204148903,53389,330350,322282
1631204148913,53379,330356,322241
1631204148923,53370,330332,322240
1631204148933,53366,330333,322201
1631204148943,53359,330330,322196
1631204148953,53340,330351,322174
1631204148963,53336,330283,322181
1631204148973,53331,330318,322128
1631204148983,53318,330277,322125
1631204148993,53329,330260,322139
1631204149003,53313,330289,322120
1631204149013,53332,330328,322159
1631204149023,53325,330352,322164
1631204149033,53341,330356,322147
1631204149043,53333,330311,322184
1631204149053,53342,330327,322148
1631204149063,53342,330321,322142
1631204149073,53349,330335,322155
1631204149083,53349,330370,322140
1631204149093,53365,330364,322104
1631204149103,53349,330383,322167
1631204149113,53365,330386,322129
1631204149123,53367,330413,322193
1631204149133,53372,330408,322184
1631204149143,53385,330439,322189
1631204149153,53406,330442,322214
1631204149163,53416,330446,322207
1631204149173,53422,330428,322230
1631204149183,53432,330452,322234
1631204149193,53440,330461,322227
1631204149203,53455,330474,322251
1631204149213,53454,330517,322235
1631204149223,53467,330506,322278
1631204149233,53471,330482,322283
1631204149243,53487,330558,322289
1631204149253,53499,330550,322326
1631204149263,53516,330525,322299
1631204149273,53509,330555,322285
1631204149283,53523,330570,322322
1631204149293,53518,330560,322320
1631204149303,53525,330544,322301
1631204149313,53532,330510,322278
1631204149323,53550,330587,322269
1631204149333,53543,330587,322279
1631204149343,53565,330599,322350
1631204149353,53566,330634,322255
1631204149363,53565,330597,322308
1631204149373,53577,330647,322297
1631204149383,53592,330627,322326
1631204149393,53600,330651,322349
1631204149403,53628,330652,322343
1631204149413,53632,330644,322409
1631204149423,53641,330664,322387
1631204149433,53649,330674,322372
1631204149443,53676,330755,322407
1631204149453,53682,330719,322417
1631204149463,53693,330774,322434
1631204149473,53694,330738,322422
1631204149483,53687,330728,322397
1631204149493,53693,330740,322405
1631204149503,53702,330720,322401
1631204149513,53675,330725,322398
1631204149523,53678,330669,322405
1631204149533,53662,330715,322387
1631204149543,53646,330651,322383
1631204149553,53629,330688,322380
1631204149563,53611,330650,322372
1631204149573,53601,330622,322344
1631204149583,53585,330568,322340
1631204149593,53559,330572,322282
1631204149603,53543,330595,322328
1631204149613,53528,330553,322291
1631204149623,53517,330542,322312
1631204149633,53509,330530,322301
1631204149643,53512,330560,322321
1631204149653,53497,330540,322283
1631204149663,53492,330520,322322
1631204149673,53485,330531,322331
1631204149683,53468,330560,322288
1631204149693,53458,330537,322302
1631204149703,53449,330542,322272
1631204149713,53445,330533,322308
1631204149723,53459,330558,322288
1631204149733,53446,330537,322299
1631204149743,53437,330532,322296
1631204149753,53436,330510,322318
1631204149763,53425,330545,322310
1631204149773,53433,330516,322260
1631204149783,53428,330540,322324
1631204149793,53430,330515,322281
1631204149803,53434,330504,322326
1631204149813,53425,330508,322269
1631204149823,53440,330562,322345
1631204149833,53431,330570,322330
1631204149843,53416,330563,322298
1631204149853,53431,330519,322346
1631204149863,53425,330578,322364
1631204149873,53434,330506,322351
1631204149883,53444,330554,322373
1631204149893,53441,330564,322360
1631204149903,53445,330533,322368
1631204149913,53439,330557,322350
1631204149923,53446,330531,322344
1631204149933,53438,330542,322295
1631204149943,53444,330539,322326
1631204149953,53445,330576,322324
1631204149963,53465,330570,322341
1631204149973,53450,330607,322288
1631204149983,53445,330565,322287
1631204149993,53444,330594,322262
1631204150003,53456,330549,322320
1631204150013,53453,330552,322298
1631204150023,53457,330598,322278
1631204150033,53465,330573,322302
1631204150043,53487,330598,322355
1631204150053,53481,330593,322297
1631204150063,53484,330595,322289
1631204150073,53486,330603,322278
1631204150083,53488,330604,322288
1631204150093,53497,330601,322307
1631204150103,53503,330602,322261
1631204150113,53510,330599,322301
1631204150123,53527,330581,322321
1631204150133,53520,330634,322332
1631204150143,53540,330649,322282
1631204150153,53534,330671,322311
1631204150163,53542,330669,322314
1631204150173,53539,330657,322338
1631204150183,53544,330649,322311
1631204150193,53548,330665,322327
1631204150203,53548,330642,322282
1631204150213,53565,330660,322268
1631204150223,53570,330641,322285
1631204150233,53577,330676,322277
1631204150243,53582,330698,322248
1631204150253,53592,330668,322327
1631204150263,53611,330701,322309
1631204150273,53612,330703,322301
1631204150283,53631,330744,322351
1631204150293,53636,330714,322301
1631204150303,53648,330749,322300
1631204150313,53638,330730,322307
1631204150323,53656,330779,322375
1631204150333,53667,330745,322311
1631204150343,53686,330750,322319
1631204150353,53679,330775,322297
1631204150363,53677,330756,322337
1631204150373,53685,330781,322300
1631204150383,53682,330763,322254
1631204150393,53684,330723,322300
1631204150403,53676,330725,322281
1631204150413,53660,330689,322267
1631204150423,53646,330668,322270
1631204150433,53622,330693,322264
1631204150443,53613,330628,322267
1631204150453,53604,330662,322232
1631204150463,53584,330657,322241
1631204150473,53573,330640,322194
1631204150483,53567,330655,322229
1631204150493,53547,330580,322222
1631204150503,53527,330577,322207
1631204150513,53512,330591,322195
1631204150523,53498,330590,322154
1631204150533,53489,330548,322180
1631204150543,53482,330594,322166
1631204150553,53466,330533,322149
1631204150563,53449,330546,322150
1631204150573,53448,330544,322163
1631204150583,53432,330510,322171
1631204150593,53412,330472,322093
1631204150603,53401,330511,322068
1631204150613,53374,330503,322079
1631204150623,53394,330521,322046
1631204150633,53385,330464,322034
1631204150643,53375,330516,322071
1631204150653,53377,330524,322096
1631204150663,53363,330491,322040
1631204150673,53350,330463,322045
1631204150683,53346,330444,322040
1631204150693,53360,330441,322034
1631204150703,53348,330433,322039
1631204150713,53344,330420,322012
1631204150723,53337,330441,322003
1631204150733,53334,330410,321965
1631204150743,53332,330453,322002
1631204150753,53319,330441,321959
1631204150763,53318,330458,321977
1631204150773,53317,330463,322005
1631204150783,53320,330468,321947
1631204150793,53326,330440,321970
1631204150803,53323,330432,321967
1631204150813,53333,330483,322004
1631204150823,53329,330453,321985
1631204150833,53331,330483,321969
1631204150843,53335,330482,322000
1631204150853,53344,330443,321970
1631204150863,53340,330462,321977
1631204150873,53351,330518,321985
1631204150883,53352,330451,321966
1631204150893,53359,330504,322002
1631204150903,53372,330507,321996
1631204150913,53377,330531,321997
1631204150923,53370,330515,321988
1631204150933,53394,330496,321976
1631204150943,53395,330499,321992
1631204150953,53379,330509,322026
1631204150963,53394,330515,321994
1631204150973,53397,330506,321988
1631204150983,53385,330502,321984
1631204150993,53390,330513,321929
1631204151003,53390,330509,321935
1631204151013,53416,330511,321924
1631204151023,53416,330542,321958
1631204151033,53416,330505,321948
1631204151043,53418,330478,321929
1631204151053,53421,330555,321928
1631204151063,53415,330511,321931
1631204151073,53413,330514,321852
1631204151083,53412,330532,321875
1631204151093,53420,330520,321886
1631204151103,53430,330544,321887
1631204151113,53433,330563,321845
1631204151123,53432,330568,321890
1631204151133,53439,330532,321919
1631204151143,53456,330568,321878
1631204151153,53462,330585,321881
1631204151163,53472,330591,321878
1631204151173,53477,330563,321900
1631204151183,53505,330644,321886
1631204151193,53502,330625,321901
1631204151203,53515,330623,321915
1631204151213,53519,330604,321902
1631204151223,53517,330621,321876
1631204151233,53516,330624,321830
1631204151243,53512,330611,321809
1631204151253,53494,330597,321801
1631204151263,53502,330569,321815
1631204151273,53488,330562,321803
1631204151283,53474,330508,321786
1631204151293,53458,330523,321735
1631204151303,53426,330472,321745
1631204151313,53417,330467,321751
1631204151323,53395,330493,321766
1631204151333,53384,330438,321746
1631204151343,53373,330447,321714
1631204151353,53372,330421,321763
1631204151363,53348,330403,321700
1631204151373,53337,330432,321679
1631204151383,53336,330407,321675
1631204151393,53320,330422,321666
1631204151403,53307,330409,321655
1631204151413,53298,330386,321669
1631204151423,53292,330393,321637
1631204151433,53280,330383,321639
1631204151443,53262,330386,321659
1631204151453,53260,330392,321635
1631204151463,53252,330396,321648
1631204151473,53244,330363,321612
1631204151483,53237,330361,321581
1631204151493,53246,330350,321583
1631204151503,53241,330415,321586
1631204151513,53237,330331,321617
1631204151523,53239,330380,321612
1631204151533,53233,330340,321596
1631204151543,53227,330352,321603
1631204151553,53233,330388,321629
1631204151563,53214,330361,321616
1631204151573,53220,330345,321602
1631204151583,53224,330363,321595
1631204151593,53223,330346,321592
1631204151603,53205,330356,321625
1631204151613,53213,330349,321618
1631204151623,53220,330379,321616
1631204151633,53224,330323,321613
1631204151643,53217,330334,321613
1631204151653,53223,330366,321597
1631204151663,53232,330349,321622
1631204151673,53234,330363,321634
1631204151683,53243,330377,321668
1631204151693,53250,330387,321675
1631204151703,53264,330428,321678
1631204151713,53271,330437,321661
1631204151723,53287,330439,321667
1631204151733,53282,330417,321752
1631204151743,53302,330460,321713
1631204151753,53315,330477,321752
1631204151763,53319,330472,321751
1631204151773,53327,330459,321750
1631204151783,53345,330437,321757
1631204151793,53356,330447,321786
1631204151803,53351,330472,321760
1631204151813,53346,330481,321780
1631204151823,53351,330445,321762
1631204151833,53363,330480,321740
1631204151843,53360,330544,321788
1631204151853,53374,330488,321781
1631204151863,53378,330528,321765
1631204151873,53379,330557,321780
1631204151883,53379,330494,321760
1631204151893,53394,330529,321738
1631204151903,53395,330539,321731
1631204151913,53389,330565,321790
1631204151923,53401,330552,321752
1631204151933,53398,330591,321778
1631204151943,53410,330574,321758
1631204151953,53417,330581,321762
1631204151963,53433,330566,321757
1631204151973,53436,330599,321753
1631204151983,53440,330559,321747
1631204151993,53444,330572,321752
1631204152003,53464,330575,321774
1631204152013,53469,330575,321749
1631204152023,53470,330625,321765
1631204152033,53480,330637,321778
1631204152043,53493,330621,321770
1631204152053,53502,330639,321783
1631204152063,53506,330632,321784
1631204152073,53526,330639,321775
1631204152083,53533,330665,321762
1631204152093,53535,330658,321795
1631204152103,53551,330690,321786
1631204152113,53547,330653,321798
1631204152123,53541,330701,321776
1631204152133,53547,330647,321772
1631204152143,53536,330623,321757
1631204152153,53522,330604,321747
1631204152163,53516,330592,321748
1631204152173,53491,330554,321704
1631204152183,53473,330531,321684
1631204152193,53447,330518,321722
1631204152203,53424,330502,321676
1631204152213,53401,330492,321655
1631204152223,53381,330470,321658
1631204152233,53365,330458,321653
1631204152243,53352,330479,321603
1631204152253,53327,330483,321623
1631204152263,53319,330390,321606
1631204152273,53288,330419,321557
1631204152283,53282,330386,321549
1631204152293,53271,330346,321525
1631204152303,53244,330394,321532
1631204152313,53234,330377,321480
1631204152323,53231,330381,321475
1631204152333,53200,330355,321511
1631204152343,53201,330316,321485
1631204152353,53186,330361,321482
1631204152363,53160,330331,321485
1631204152373,53155,330330,321450
1631204152383,53149,330315,321471
1631204152393,53140,330336,321439
1631204152403,53130,330321,321430
1631204152413,53133,330266,321440
1631204152423,53128,330312,321413
1631204152433,53120,330283,321399
1631204152443,53109,330225,321391
1631204152453,53101,330300,321350
1631204152463,53083,330242,321377
1631204152473,53069,330195,321322
1631204152483,53061,330201,321288
1631204152493,53045,330226,321276
1631204152503,53037,330199,321249
1631204152513,53030,330212,321268
1631204152523,53018,330197,321201
1631204152533,53007,330189,321217
1631204152543,53008,330169,321169
1631204152553,53007,330132,321154
1631204152563,52998,330149,321119
1631204152573,52992,330119,321117
1631204152583,52996,330139,321118
1631204152593,52994,330088,321145
1631204152603,52989,330100,321090
1631204152613,52981,330156,321069
1631204152623,52983,330143,321098
1631204152633,53001,330122,321099
1631204152643,52987,330151,321069
1631204152653,52984,330130,321045
1631204152663,52988,330153,321054
1631204152673,53002,330173,321069
1631204152683,52992,330159,321047
1631204152693,52992,330158,321084
1631204152703,53012,330130,321059
1631204152713,53002,330152,321061
1631204152723,53024,330185,321058
1631204152733,53014,330175,321017
1631204152743,53019,330155,321038
1631204152753,53015,330209,321004
1631204152763,53026,330183,320973
1631204152773,53012,330187,321007
1631204152783,53006,330145,320965
1631204152793,53022,330200,320920
1631204152803,53015,330157,320930
1631204152813,53012,330171,320874
1631204152823,53000,330171,320872
1631204152833,52995,330117,320842
1631204152843,52976,330116,320790
1631204152853,52966,330091,320751
1631204152863,52962,330110,320704
1631204152873,52946,330123,320650
1631204152883,52927,330026,320609
1631204152893,52937,330015,320593
1631204152903,52945,329990,320589
1631204152913,52936,330049,320547
1631204152923,52936,330042,320557
1631204152933,52953,330059,320537
1631204152943,52955,330055,320553
1631204152953,52976,330064,320545
1631204152963,52980,330007,320567
1631204152973,52989,330084,320555
1631204152983,52997,330107,320529
1631204152993,52978,330078,320498
1631204153003,52990,330056,320514
1631204153013,52977,330084,320480
1631204153023,52973,330029,320458
1631204153033,52964,330043,320485
1631204153043,52969,329991,320452
1631204153053,52951,329985,320473
1631204153063,52915,329922,320441
1631204153073,52891,329932,320396
1631204153083,52887,329925,320426
1631204153093,52861,329873,320398
1631204153103,52861,329956,320376
1631204153113,52825,329864,320381
1631204153123,52821,329891,320370
1631204153133,52808,329817,320349
1631204153143,52778,329824,320314
1631204153153,52755,329861,320304
1631204153163,52743,329776,320285
1631204153173,52718,329776,320292
1631204153183,52704,329735,320241
1631204153193,52686,329796,320262
1631204153203,52672,329753,320242
1631204153213,52680,329765,320251
1631204153223,52654,329769,320254
1631204153233,52655,329717,320263
1631204153243,52648,329770,320252
1631204153253,52630,329728,320216
1631204153263,52616,329759,320209
1631204153273,52612,329691,320213
1631204153283,52609,329749,320193
1631204153293,52608,329694,320209
1631204153303,52600,329713,320214
1631204153313,52596,329684,320207
1631204153323,52593,329688,320183
1631204153333,52589,329693,320208
1631204153343,52583,329688,320163
1631204153353,52571,329670,320169
1631204153363,52568,329657,320184
1631204153373,52569,329682,320150
1631204153383,52570,329633,320147
1631204153393,52576,329698,320176
1631204153403,52564,329720,320187
1631204153413,52569,329675,320162
1631204153423,52567,329692,320180
1631204153433,52575,329696,320170
1631204153443,52590,329655,320197
1631204153453,52606,329745,320246
1631204153463,52604,329705,320200
1631204153473,52603,329716,320211
1631204153483,52603,329686,320202
1631204153493,52605,329730,320191
1631204153503,52602,329725,320162
1631204153513,52602,329751,320151
1631204153523,52615,329725,320162
1631204153533,52612,329740,320161
1631204153543,52614,329732,320162
1631204153553,52622,329720,320167
1631204153563,52622,329719,320167
1631204153573,52621,329781,320166
1631204153583,52630,329783,320209
1631204153593,52644,329785,320190
1631204153603,52663,329740,320204
1631204153613,52671,329775,320202
1631204153623,52676,329774,320235
1631204153633,52676,329810,320206
1631204153643,52697,329791,320190
1631204153653,52698,329777,320226
1631204153663,52705,329769,320210
1631204153673,52705,329846,320216
1631204153683,52730,329841,320237
1631204153693,52744,329810,320228
1631204153703,52738,329796,320254
1631204153713,52762,329876,320265
1631204153723,52773,329839,320279
1631204153733,52788,329817,320272
1631204153743,52784,329936,320306
1631204153753,52795,329878,320310
1631204153763,52805,329897,320310
1631204153773,52803,329934,320271
1631204153783,52810,329906,320254
1631204153793,52828,329943,320306
1631204153803,52832,329954,320287
1631204153813,52840,329957,320284
1631204153823,52859,329957,320319
1631204153833,52875,329943,320309
1631204153843,52881,329962,320344
1631204153853,52901,329975,320337
1631204153863,52909,329975,320387
1631204153873,52917,330042,320382
1631204153883,52920,330095,320369
1631204153893,52918,330044,320363
1631204153903,52941,330004,320353
1631204153913,52944,330004,320347
1631204153923,52936,329967,320304
1631204153933,52931,329954,320276
1631204153943,52918,329972,320345
1631204153953,52896,329937,320286
1631204153963,52882,329929,320287
1631204153973,52864,329838,320274
1631204153983,52841,329865,320281
1631204153993,52813,329888,320266
1631204154003,52801,329832,320212
1631204154013,52799,329823,320221
1631204154023,52780,329795,320219
1631204154033,52762,329838,320204
1631204154043,52757,329811,320185
1631204154053,52740,329769,320189
1631204154063,52721,329794,320158
1631204154073,52716,329774,320177
1631204154083,52708,329792,320106
1631204154093,52698,329797,320151
1631204154103,52681,329736,320155
1631204154113,52677,329714,320155
1631204154123,52657,329712,320157
1631204154133,52654,329694,320130
1631204154143,52644,329710,320114
1631204154153,52627,329713,320120
1631204154163,52627,329662,320119
1631204154173,52621,329740,320063
1631204154183,52621,329692,320103
1631204154193,52626,329731,320072
1631204154203,52632,329716,320099
1631204154213,52615,329716,320090
1631204154223,52616,329684,320105
1631204154233,52605,329690,320154
1631204154243,52604,329725,320087
1631204154253,52600,329693,320047
1631204154263,52601,329678,320047
1631204154273,52591,329662,320084
1631204154283,52589,329684,320041
1631204154293,52587,329676,320042
1631204154303,52598,329683,320030
1631204154313,52604,329678,320032
1631204154323,52608,329657,320114
1631204154333,52596,329712,320089
1631204154343,52623,329683,320071
1631204154353,52606,329702,320094
1631204154363,52626,329704,320135
1631204154373,52624,329722,320106
1631204154383,52638,329749,320124
1631204154393,52630,329702,320161
1631204154403,52652,329733,320159
1631204154413,52657,329740,320159
1631204154423,52674,329777,320186
1631204154433,52682,329757,320195
1631204154443,52682,329749,320171
1631204154453,52685,329774,320197
1631204154463,52698,329816,320165
1631204154473,52699,329820,320161
1631204154483,52700,329777,320150
1631204154493,52708,329801,320182
1631204154503,52710,329817,320171
1631204154513,52711,329836,320197
1631204154523,52737,329824,320213
1631204154533,52744,329875,320219
1631204154543,52759,329880,320201
1631204154553,52762,329891,320242
1631204154563,52767,329889,320226
1631204154573,52787,329926,320257
1631204154583,52800,329921,320288
1631204154593,52806,329885,320226
1631204154603,52809,329904,320226
1631204154613,52821,329909,320286
1631204154623,52840,329910,320305
1631204154633,52843,329931,320327
1631204154643,52852,329954,320334
1631204154653,52864,329954,320327
1631204154663,52884,330002,320312
1631204154673,52861,330053,320324
1631204154683,52892,329973,320322
1631204154693,52889,330017,320326
1631204154703,52897,330014,320309
1631204154713,52908,330026,320322
1631204154723,52924,329988,320332
1631204154733,52936,330100,320384
1631204154743,52947,330028,320382
1631204154753,52961,330101,320377
1631204154763,52978,330078,320353
1631204154773,52979,330074,320345
1631204154783,52976,330108,320366
1631204154793,52974,330090,320354
1631204154803,52958,330092,320329
1631204154813,52955,330005,320306
1631204154823,52945,330015,320332
1631204154833,52934,330023,320340
1631204154843,52927,329997,320315
1631204154853,52909,329960,320266
1631204154863,52883,329943,320290
1631204154873,52868,329933,320302
1631204154883,52854,329940,320260
1631204154893,52841,329894,320279
1631204154903,52818,329863,320231
1631204154913,52815,329845,320264
1631204154923,52800,329886,320227
1631204154933,52781,329885,320261
1631204154943,52783,329859,320225
1631204154953,52759,329815,320190
1631204154963,52749,329864,320186
1631204154973,52748,329837,320235
1631204154983,52757,329823,320229
1631204154993,52731,329830,320210
1631204155003,52718,329824,320212
1631204155013,52718,329829,320185
1631204155023,52695,329863,320171
1631204155033,52701,329833,320176
1631204155043,52698,329774,320215
1631204155053,52702,329797,320221
1631204155063,52697,329836,320204
1631204155073,52700,329787,320178
1631204155083,52697,329852,320169
1631204155093,52693,329766,320164
1631204155103,52683,329794,320212
1631204155113,52680,329829,320199
1631204155123,52679,329775,320169
1631204155133,52671,329760,320204
1631204155143,52704,329814,320187
1631204155153,52689,329825,320219
1631204155163,52676,329807,320213
1631204155173,52685,329800,320240
1631204155183,52697,329833,320232
1631204155193,52691,329809,320244
1631204155203,52694,329804,320239
1631204155213,52688,329776,320266
1631204155223,52692,329803,320228
1631204155233,52714,329868,320271
1631204155243,52721,329822,320230
1631204155253,52720,329844,320308
1631204155263,52721,329841,320255
1631204155273,52723,329845,320278
1631204155283,52717,329826,320257
1631204155293,52735,329871,320258
1631204155303,52746,329867,320281
1631204155313,52748,329883,320278
1631204155323,52732,329876,320286
1631204155333,52762,329892,320267
1631204155343,52757,329908,320292
1631204155353,52765,329912,320316
1631204155363,52772,329908,320299
1631204155373,52792,329892,320353
1631204155383,52789,329932,320322
1631204155393,52809,329900,320332
1631204155403,52823,329968,320311
1631204155413,52814,329912,320311
1631204155423,52822,329962,320307
1631204155433,52823,329960,320311
1631204155443,52823,329998,320301
1631204155453,52833,329960,320268
1631204155463,52843,329997,320328
1631204155473,52841,330008,320313
1631204155483,52859,329978,320371
1631204155493,52879,329980,320315
1631204155503,52869,330014,320314
1631204155513,52877,330047,320313
1631204155523,52890,330011,320320
1631204155533,52908,330006,320340
1631204155543,52919,330041,320367
1631204155553,52926,330062,320370
1631204155563,52945,330055,320393
1631204155573,52951,330068,320376
1631204155583,52956,330090,320414
1631204155593,52978,330110,320388
1631204155603,52977,330099,320404
1631204155613,52993,330094,320411
1631204155623,52999,330109,320470
1631204155633,53016,330170,320488
1631204155643,53038,330124,320465
1631204155653,53042,330145,320477
1631204155663,53060,330168,320506
1631204155673,53058,330223,320500
1631204155683,53070,330147,320510
1631204155693,53063,330175,320503
1631204155703,53060,330132,320519
1631204155713,53051,330151,320502
1631204155723,53038,330113,320495
1631204155733,53027,330110,320500
1631204155743,53004,330095,320487
1631204155753,52982,330073,320492
1631204155763,52967,330066,320509
1631204155773,52946,330032,320473
1631204155783,52941,330024,320459
1631204155793,52936,330013,320464
1631204155803,52925,330021,320469
1631204155813,52903,330007,320504
1631204155823,52899,330006,320510
1631204155833,52879,329975,320494
1631204155843,52870,330013,320492
1631204155853,52853,329979,320470
1631204155863,52850,329987,320492
1631204155873,52847,330017,320500
1631204155883,52841,329952,320487
1631204155893,52831,329969,320528
1631204155903,52817,330033,320525
1631204155913,52810,329993,320501
1631204155923,52804,329955,320502
1631204155933,52799,329964,320498
1631204155943,52799,330004,320522
1631204155953,52810,329976,320517
1631204155963,52806,330006,320552
1631204155973,52801,329991,320543
1631204155983,52787,330014,320569
1631204155993,52794,330013,320524
1631204156003,52795,329986,320552
1631204156013,52804,330025,320550
1631204156023,52803,330039,320571
1631204156033,52803,330014,320620
1631204156043,52794,330036,320598
1631204156053,52795,330033,320621
1631204156063,52803,329968,320604
1631204156073,52807,329984,320607
1631204156083,52809,330049,320632
1631204156093,52822,330023,320645
1631204156103,52821,330044,320689
1631204156113,52814,330083,320645
1631204156123,52840,330073,320699
1631204156133,52829,330084,320730
1631204156143,52861,330091,320696
1631204156153,52854,330070,320704
1631204156163,52853,330078,320728
1631204156173,52860,330070,320721
1631204156183,52861,330143,320772
1631204156193,52877,330110,320742
1631204156203,52891,330154,320748
1631204156213,52889,330140,320772
1631204156223,52897,330132,320762
1631204156233,52895,330161,320782
1631204156243,52901,330168,320758
1631204156253,52897,330141,320799
1631204156263,52901,330191,320744
1631204156273,52904,330090,320761
1631204156283,52912,330121,320758
1631204156293,52919,330138,320743
1631204156303,52920,330152,320793
1631204156313,52941,330169,320761
1631204156323,52944,330160,320773
1631204156333,52955,330182,320763
1631204156343,52952,330183,320782
1631204156353,52959,330173,320777
1631204156363,52968,330120,320771
1631204156373,52965,330241,320798
1631204156383,52978,330178,320798
1631204156393,52989,330153,320766
1631204156403,52992,330188,320765
1631204156413,52985,330204,320783
1631204156423,52999,330182,320762
1631204156433,53011,330206,320788
1631204156443,53025,330204,320779
1631204156453,53022,330233,320746
1631204156463,53023,330211,320777
1631204156473,53041,330198,320738
1631204156483,53028,330242,320769
1631204156493,53047,330203,320748
1631204156503,53060,330214,320795
1631204156513,53065,330234,320781
1631204156523,53074,330327,320813
1631204156533,53089,330252,320807
1631204156543,53095,330271,320792
1631204156553,53095,330252,320839
1631204156563,53098,330261,320740
1631204156573,53096,330264,320783
1631204156583,53102,330239,320814
1631204156593,53082,330181,320789
1631204156603,53086,330187,320758
1631204156613,53054,330178,320743
1631204156623,53043,330173,320752
1631204156633,53030,330102,320743
1631204156643,53005,330115,320705
1631204156653,52967,330092,320700
1631204156663,52952,330068,320664
1631204156673,52938,330037,320667
1631204156683,52921,330054,320664
1631204156693,52915,330003,320675
1631204156703,52895,329981,320635
1631204156713,52881,330021,320651
1631204156723,52867,330018,320647
1631204156733,52843,329991,320626
1631204156743,52836,329960,320607
1631204156753,52814,329978,320627
1631204156763,52809,329918,320612
1631204156773,52808,329908,320640
1631204156783,52779,329928,320629
1631204156793,52779,329905,320633
1631204156803,52755,329948,320630
1631204156813,52742,329896,320569
1631204156823,52731,329880,320539
1631204156833,52725,329911,320556
1631204156843,52721,329834,320570
1631204156853,52725,329880,320573
1631204156863,52717,329905,320614
1631204156873,52716,329892,320573
1631204156883,52725,329909,320646
1631204156893,52726,329910,320640
1631204156903,52733,329910,320638
1631204156913,52728,329909,320668
1631204156923,52754,329915,320655
1631204156933,52758,329963,320733
1631204156943,52769,329987,320784
1631204156953,52803,330009,320867
1631204156963,52816,330089,320925
1631204156973,52826,330061,320958
1631204156983,52834,330078,320936
1631204156993,52847,330121,320961
1631204157003,52861,330094,321005
1631204157013,52863,330027,320993
1631204157023,52875,330101,321011
1631204157033,52875,330068,321047
1631204157043,52868,330083,321025
1631204157053,52878,330079,320992
1631204157063,52847,330054,320963
1631204157073,52850,330049,320922
1631204157083,52856,330081,320888
1631204157093,52837,330048,320902
1631204157103,52847,330020,320863
1631204157113,52838,330002,320859
1631204157123,52829,329984,320801
1631204157133,52828,329985,320796
1631204157143,52814,329970,320780
1631204157153,52813,329982,320779
1631204157163,52815,329992,320758
1631204157173,52830,329985,320790
1631204157183,52843,330006,320786
1631204157193,52867,330036,320816
1631204157203,52885,330041,320864
1631204157213,52890,330072,320846
1631204157223,52901,330064,320920
1631204157233,52918,330122,320892
1631204157243,52945,330095,320958
1631204157253,52981,330174,321022
1631204157263,53010,330172,321072
1631204157273,53056,330244,321137
1631204157283,53083,330247,321221
1631204157293,53107,330276,321239
1631204157303,53109,330257,321203
1631204157313,53119,330342,321229
1631204157323,53116,330316,321211
1631204157333,53122,330291,321148
1631204157343,53117,330267,321128
1631204157353,53098,330261,321068
1631204157363,53086,330237,321027
1631204157373,53071,330156,320946
1631204157383,53059,330178,320935
1631204157393,53049,330182,320894
1631204157403,53054,330142,320869
1631204157413,53063,330217,320861
1631204157423,53035,330174,320825
1631204157433,53058,330117,320769
1631204157443,53009,330149,320737
1631204157453,53008,330055,320705
1631204157463,52973,330008,320638
1631204157473,52945,329961,320587
1631204157483,52919,329929,320519
1631204157493,52891,329879,320517
1631204157503,52865,329869,320496
1631204157513,52849,329863,320458
1631204157523,52820,329868,320391
1631204157533,52806,329809,320382
1631204157543,52784,329813,320380
1631204157553,52771,329768,320333
1631204157563,52745,329750,320337
1631204157573,52740,329746,320311
1631204157583,52733,329723,320302
1631204157593,52699,329739,320264
1631204157603,52718,329720,320246
1631204157613,52693,329744,320248
1631204157623,52694,329742,320241
1631204157633,52696,329772,320290
1631204157643,52710,329765,320301
1631204157653,52722,329706,320319
1631204157663,52738,329773,320357
1631204157673,52734,329805,320393
1631204157683,52749,329824,320417
1631204157693,52753,329823,320435
1631204157703,52770,329814,320433
1631204157713,52773,329802,320432
1631204157723,52772,329837,320472
1631204157733,52791,329857,320496
1631204157743,52800,329831,320520
1631204157753,52782,329828,320493
1631204157763,52788,329877,320515
1631204157773,52796,329832,320528
1631204157783,52805,329843,320535
1631204157793,52807,329844,320572
1631204157803,52809,329833,320553
1631204157813,52816,329860,320610
1631204157823,52808,329883,320605
1631204157833,52828,329898,320580
1631204157843,52826,329902,320557
1631204157853,52832,329877,320583
1631204157863,52840,329882,320537
1631204157873,52839,329865,320582
1631204157883,52847,329853,320580
1631204157893,52866,329933,320595
1631204157903,52876,329927,320671
1631204157913,52880,329985,320686
1631204157923,52906,329942,320646
1631204157933,52933,329984,320681
1631204157943,52920,329981,320706
1631204157953,52943,330012,320698
1631204157963,52950,329968,320715
1631204157973,52953,329998,320714
1631204157983,52959,329928,320683
1631204157993,52953,329980,320698
1631204158003,52956,329982,320658
1631204158013,52965,329955,320681
1631204158023,52959,329960,320667
1631204158033,52970,329961,320681
1631204158043,52980,329967,320647
1631204158053,52973,330001,320665
1631204158063,52992,330026,320677
1631204158073,52993,329983,320691
1631204158083,52996,330020,320697
1631204158093,53018,330023,320674
1631204158103,53037,330009,320684
1631204158113,53021,330044,320692
1631204158123,53028,330016,320692
1631204158133,53039,330008,320678
1631204158143,53048,330056,320688
1631204158153,53053,330045,320716
1631204158163,53067,330050,320681
1631204158173,53078,330133,320695
1631204158183,53086,330062,320664
1631204158193,53086,330088,320726
1631204158203,53090,330081,320688
1631204158213,53100,330033,320676
1631204158223,53112,330051,320674
1631204158233,53125,330098,320717
1631204158243,53143,330099,320698
1631204158253,53145,330145,320703
1631204158263,53143,330088,320662
1631204158273,53131,330073,320703
1631204158283,53130,330100,320655
1631204158293,53131,330052,320637
1631204158303,53110,329993,320631
1631204158313,53088,330001,320622
1631204158323,53049,329958,320563
1631204158333,53027,329935,320569
1631204158343,53011,329936,320548
1631204158353,52979,329896,320507
1631204158363,52967,329836,320515
1631204158373,52940,329856,320477
1631204158383,52927,329840,320460
1631204158393,52923,329789,320459
1631204158403,52906,329780,320451
1631204158413,52886,329788,320398
1631204158423,52831,329751,320395
1631204158433,52827,329753,320350
1631204158443,52807,329735,320316
1631204158453,52800,329739,320317
1631204158463,52784,329714,320300
1631204158473,52765,329695,320278
1631204158483,52741,329637,320287
1631204158493,52731,329621,320274
1631204158503,52719,329636,320263
1631204158513,52713,329647,320227
1631204158523,52705,329660,320232
1631204158533,52704,329610,320225
1631204158543,52698,329639,320216
1631204158553,52688,329613,320227
1631204158563,52694,329614,320214
1631204158573,52685,329704,320200
1631204158583,52683,329597,320197
1631204158593,52679,329640,320177
1631204158603,52672,329606,320219
1631204158613,52666,329636,320183
1631204158623,52664,329610,320183
1631204158633,52661,329605,320152
1631204158643,52655,329645,320153
1631204158653,52645,329620,320108
1631204158663,52639,329577,320136
1631204158673,52627,329625,320125
1631204158683,52622,329626,320073
1631204158693,52639,329612,320066
1631204158703,52623,329595,320086
1631204158713,52623,329558,320073
1631204158723,52629,329558,320093
1631204158733,52614,329600,320086
1631204158743,52619,329537,320074
1631204158753,52633,329595,320028
1631204158763,52615,329571,320058
1631204158773,52613,329630,320011
1631204158783,52628,329593,320000
1631204158793,52621,329591,319998
1631204158803,52636,329586,319976
1631204158813,52629,329596,320011
1631204158823,52640,329573,320002
1631204158833,52647,329617,320009
1631204158843,52642,329599,319973
1631204158853,52641,329574,320015
1631204158863,52648,329619,319994
1631204158873,52671,329613,320000
1631204158883,52676,329682,319989
1631204158893,52659,329643,319990
1631204158903,52678,329640,319990
1631204158913,52700,329645,319982
1631204158923,52687,329632,320015
1631204158933,52701,329637,319998
1631204158943,52712,329653,319985
1631204158953,52724,329631,320003
1631204158963,52728,329695,320022
1631204158973,52720,329657,320027
1631204158983,52732,329737,320010
1631204158993,52744,329684,320033
1631204159003,52757,329734,319992
1631204159013,52767,329706,320026
1631204159023,52776,329726,320031
1631204159033,52789,329789,320064
1631204159043,52816,329818,320057
1631204159053,52827,329810,320080
1631204159063,52832,329770,320062
1631204159073,52850,329807,320062
1631204159083,52842,329820,320059
1631204159093,52856,329815,320083
1631204159103,52878,329815,320073
1631204159113,52882,329843,320097
1631204159123,52891,329826,320069
1631204159133,52891,329843,320082
1631204159143,52883,329828,320066
1631204159153,52868,329831,320043
1631204159163,52853,329739,320061
1631204159173,52831,329738,320033
1631204159183,52804,329748,320029
1631204159193,52791,329710,319981
1631204159203,52752,329635,319983
1631204159213,52744,329669,319969
1631204159223,52732,329629,319970
1631204159233,52723,329712,319975
1631204159243,52701,329679,320028
1631204159253,52698,329672,320014
1631204159263,52696,329638,319997
1631204159273,52686,329692,319984
1631204159283,52673,329629,319984
1631204159293,52654,329643,319985
1631204159303,52644,329614,319955
1631204159313,52636,329590,319969
1631204159323,52614,329599,319948
1631204159333,52609,329594,319924
1631204159343,52590,329612,319981
1631204159353,52590,329587,319969
1631204159363,52594,329603,319926
1631204159373,52586,329587,319936
1631204159383,52552,329582,319943
1631204159393,52562,329576,319980
1631204159403,52554,329580,319922
1631204159413,52538,329563,319900
1631204159423,52541,329554,319907
1631204159433,52529,329567,319887
1631204159443,52540,329549,319908
1631204159453,52533,329594,319911
1631204159463,52527,329596,319860
1631204159473,52517,329547,319860
1631204159483,52509,329529,319833
1631204159493,52497,329527,319811
1631204159503,52508,329510,319850
1631204159513,52501,329550,319805
1631204159523,52495,329525,319832
1631204159533,52502,329565,319817
1631204159543,52501,329570,319823
1631204159553,52512,329531,319870
1631204159563,52511,329574,319847
1631204159573,52519,329485,319837
1631204159583,52514,329561,319837
1631204159593,52530,329530,319863
1631204159603,52546,329575,319848
1631204159613,52553,329607,319903
1631204159623,52571,329635,319906
1631204159633,52583,329620,319905
1631204159643,52593,329649,319919
1631204159653,52591,329712,319940
1631204159663,52606,329695,319992
1631204159673,52619,329683,319982
1631204159683,52651,329675,319981
1631204159693,52641,329717,319978
1631204159703,52651,329734,319991
1631204159713,52654,329710,320033
1631204159723,52670,329746,320015
1631204159733,52694,329738,320057
1631204159743,52714,329782,320120
1631204159753,52734,329829,320124
1631204159763,52754,329828,320154
1631204159773,52772,329862,320191
1631204159783,52800,329873,320218
1631204159793,52830,329914,320259
1631204159803,52853,329975,320297
1631204159813,52870,329964,320300
1631204159823,52884,329952,320326
1631204159833,52884,329957,320362
1631204159843,52906,329993,320385
1631204159853,52932,330000,320380
1631204159863,52950,330006,320394
1631204159873,52974,330034,320454
1631204159883,52994,330095,320475
1631204159893,52993,330115,320478
1631204159903,53024,330094,320532
1631204159913,53028,330097,320490
1631204159923,53047,330137,320516
1631204159933,53040,330086,320465
1631204159943,53040,330092,320441
1631204159953,53041,330108,320403
1631204159963,53056,330146,320418
1631204159973,53064,330164,320469
1631204159983,53074,330172,320433
1631204159993,53092,330159,320470
1631204160003,53098,330136,320471
1631204160013,53098,330097,320482
1631204160023,53090,330079,320458
1631204160033,53052,330075,320426
1631204160043,53043,330030,320454
1631204160053,53003,330012,320393
1631204160063,52966,329989,320374
1631204160073,52953,329947,320300
1631204160083,52914,329927,320264
1631204160093,52887,329921,320209
1631204160103,52853,329843,320157
1631204160113,52820,329821,320087
1631204160123,52791,329770,320036
1631204160133,52758,329685,319988
1631204160143,52719,329692,319922
1631204160153,52689,329682,319910
1631204160163,52656,329630,319874
1631204160173,52648,329613,319823
1631204160183,52615,329610,319751
1631204160193,52577,329527,319681
1631204160203,52555,329499,319630
1631204160213,52518,329518,319582
1631204160223,52501,329492,319567
1631204160233,52488,329524,319518
1631204160243,52474,329464,319517
1631204160253,52478,329468,319472
1631204160263,52469,329452,319497
1631204160273,52455,329477,319507
1631204160283,52452,329451,319438
1631204160293,52434,329401,319456
1631204160303,52444,329436,319421
1631204160313,52433,329478,319437
1631204160323,52429,329447,319437
1631204160333,52442,329407,319425
1631204160343,52430,329408,319464
1631204160353,52430,329431,319422
1631204160363,52415,329419,319466
1631204160373,52412,329460,319424
1631204160383,52418,329429,319461
1631204160393,52423,329442,319433
1631204160403,52417,329413,319416
1631204160413,52417,329398,319447
1631204160423,52437,329427,319473
1631204160433,52458,329471,319496
1631204160443,52466,329460,319528
1631204160453,52466,329481,319499
1631204160463,52475,329495,319515
1631204160473,52482,329473,319516
1631204160483,52492,329463,319521
1631204160493,52502,329438,319561
1631204160503,52520,329514,319554
1631204160513,52516,329528,319563
1631204160523,52530,329560,319575
1631204160533,52534,329561,319564
1631204160543,52545,329596,319592
1631204160553,52553,329561,319634
1631204160563,52566,329563,319651
1631204160573,52578,329633,319624
1631204160583,52587,329608,319657
1631204160593,52596,329630,319664
1631204160603,52617,329588,319661
1631204160613,52628,329636,319705
1631204160623,52629,329631,319688
1631204160633,52649,329687,319733
1631204160643,52662,329674,319718
1631204160653,52675,329685,319742
1631204160663,52685,329692,319759
1631204160673,52694,329703,319760
1631204160683,52708,329736,319812
1631204160693,52715,329747,319779
1631204160703,52729,329776,319782
1631204160713,52735,329731,319807
1631204160723,52748,329766,319794
1631204160733,52772,329771,319832
1631204160743,52783,329837,319855
1631204160753,52811,329861,319875
1631204160763,52824,329843,319907
1631204160773,52834,329844,319937
1631204160783,52858,329896,319931
1631204160793,52862,329931,319928
1631204160803,52868,329902,319966
1631204160813,52882,329894,319971
1631204160823,52887,329901,319952
1631204160833,52883,329854,319933
1631204160843,52868,329840,319952
1631204160853,52847,329815,319849
1631204160863,52834,329774,319857
1631204160873,52806,329762,319814
1631204160883,52791,329727,319839
1631204160893,52768,329721,319789
1631204160903,52746,329676,319820
1631204160913,52730,329697,319808
1631204160923,52694,329674,319789
1631204160933,52690,329685,319788
1631204160943,52679,329642,319809
1631204160953,52664,329635,319806
1631204160963,52643,329649,319766
1631204160973,52629,329637,319784
1631204160983,52617,329637,319767
1631204160993,52619,329593,319776
1631204161003,52600,329575,319732
1631204161013,52580,329583,319771
1631204161023,52582,329597,319734
1631204161033,52564,329564,319725
1631204161043,52550,329623,319712
1631204161053,52548,329575,319726
1631204161063,52543,329564,319761
1631204161073,52538,329571,319687
1631204161083,52542,329583,319748
1631204161093,52535,329572,319705
1631204161103,52526,329557,319693
1631204161113,52526,329540,319736
1631204161123,52518,329526,319715
1631204161133,52513,329563,319711
1631204161143,52514,329542,319725
1631204161153,52501,329556,319730
1631204161163,52498,329538,319727
1631204161173,52503,329530,319719
1631204161183,52498,329537,319719
1631204161193,52495,329533,319741
1631204161203,52496,329538,319721
1631204161213,52496,329543,319720
1631204161223,52500,329548,319737
1631204161233,52510,329524,319725
1631204161243,52502,329525,319768
1631204161253,52495,329566,319743
1631204161263,52506,329517,319732
1631204161273,52520,329536,319728
1631204161283,52524,329571,319767
1631204161293,52524,329602,319772
1631204161303,52546,329521,319784
1631204161313,52545,329578,319745
1631204161323,52546,329563,319786
1631204161333,52556,329578,319834
1631204161343,52558,329595,319830
1631204161353,52563,329619,319813
1631204161363,52565,329584,319800
1631204161373,52591,329642,319829
1631204161383,52589,329617,319859
1631204161393,52610,329648,319880
1631204161403,52614,329635,319867
1631204161413,52621,329645,319881
1631204161423,52643,329668,319887
1631204161433,52641,329664,319936
1631204161443,52663,329721,319924
1631204161453,52671,329693,319944
1631204161463,52682,329708,319962
1631204161473,52690,329729,319975
1631204161483,52701,329757,319946
1631204161493,52714,329743,319951
1631204161503,52722,329774,320005
1631204161513,52732,329773,320019
1631204161523,52749,329754,320049
1631204161533,52770,329771,320051
1631204161543,52793,329834,320082
1631204161553,52803,329804,320108
1631204161563,52822,329872,320130
1631204161573,52840,329871,320157
1631204161583,52852,329914,320147
1631204161593,52864,329919,320197
1631204161603,52884,329893,320218
1631204161613,52908,329964,320303
1631204161623,52949,329958,320300
1631204161633,52968,330019,320351
1631204161643,52977,330006,320384
1631204161653,52994,330014,320396
1631204161663,53008,330056,320383
1631204161673,53028,330032,320418
1631204161683,53032,330065,320464
1631204161693,53033,330026,320457
1631204161703,53023,330016,320486
1631204161713,53012,330024,320487
1631204161723,53007,330009,320527
1631204161733,52983,329971,320493
1631204161743,52964,329961,320471
1631204161753,52933,329932,320507
1631204161763,52918,329938,320518
1631204161773,52909,329929,320495
1631204161783,52887,329917,320507
1631204161793,52875,329944,320579
1631204161803,52867,329897,320523
1631204161813,52881,329908,320553
1631204161823,52851,329921,320556
1631204161833,52830,329859,320521
1631204161843,52817,329909,320543
1631204161853,52798,329839,320537
1631204161863,52791,329843,320486
1631204161873,52770,329802,320521
1631204161883,52754,329843,320526
1631204161893,52731,329807,320503
1631204161903,52718,329810,320494
1631204161913,52711,329860,320485
1631204161923,52700,329806,320489
1631204161933,52703,329835,320487
1631204161943,52707,329810,320509
1631204161953,52700,329822,320549
1631204161963,52704,329833,320561
1631204161973,52705,329773,320565
1631204161983,52691,329855,320561
1631204161993,52692,329836,320559
1631204162003,52700,329821,320569
1631204162013,52698,329787,320589
1631204162023,52702,329808,320578
1631204162033,52695,329841,320621
1631204162043,52694,329864,320624
1631204162053,52699,329855,320607
1631204162063,52701,329835,320624
1631204162073,52691,329884,320636
1631204162083,52703,329874,320615
1631204162093,52707,329847,320678
1631204162103,52710,329844,320656
1631204162113,52721,329916,320672
1631204162123,52709,329886,320672
1631204162133,52734,329894,320712
1631204162143,52738,329918,320702
1631204162153,52747,329905,320677
1631204162163,52750,329912,320721
1631204162173,52744,329931,320706
1631204162183,52756,329914,320752
1631204162193,52765,329938,320745
1631204162203,52776,329914,320721
1631204162213,52781,329916,320734
1631204162223,52780,329948,320727
1631204162233,52786,329902,320759
1631204162243,52787,329957,320741
1631204162253,52789,329970,320757
1631204162263,52816,329960,320735
1631204162273,52816,330008,320762
1631204162283,52819,329940,320747
1631204162293,52809,329940,320753
1631204162303,52812,329950,320704
1631204162313,52833,329994,320772
1631204162323,52835,330007,320715
1631204162333,52836,330000,320740
1631204162343,52837,329995,320726
1631204162353,52848,330004,320715
1631204162363,52853,329987,320756
1631204162373,52856,330007,320761
1631204162383,52870,330091,320761
1631204162393,52890,330004,320757
1631204162403,52882,330033,320771
1631204162413,52902,330018,320789
1631204162423,52915,330024,320751
1631204162433,52905,330021,320767
1631204162443,52918,330087,320777
1631204162453,52932,330058,320816
1631204162463,52942,330074,320766
1631204162473,52936,330045,320774
1631204162483,52945,330076,320779
1631204162493,52960,330107,320782
1631204162503,52961,330082,320776
1631204162513,52969,330096,320752
1631204162523,52976,330090,320777
1631204162533,52979,330130,320732
1631204162543,52975,330074,320751
1631204162553,52969,330082,320684
1631204162563,52944,330055,320670
1631204162573,52917,330000,320662
1631204162583,52907,329925,320658
1631204162593,52871,329909,320672
1631204162603,52844,329891,320590
1631204162613,52829,329914,320555
1631204162623,52792,329923,320523
1631204162633,52767,329820,320511
1631204162643,52741,329858,320519
1631204162653,52717,329835,320518
1631204162663,52710,329807,320503
1631204162673,52690,329784,320478
1631204162683,52674,329826,320467
1631204162693,52655,329801,320477
1631204162703,52637,329728,320481
1631204162713,52626,329757,320486
1631204162723,52614,329743,320450
1631204162733,52598,329734,320436
1631204162743,52588,329754,320421
1631204162753,52575,329738,320421
1631204162763,52564,329750,320413
1631204162773,52563,329702,320426
1631204162783,52558,329702,320422
1631204162793,52546,329703,320442
1631204162803,52549,329707,320489
1631204162813,52539,329693,320443
1631204162823,52541,329706,320464
1631204162833,52534,329707,320458
1631204162843,52540,329702,320473
1631204162853,52526,329679,320445
1631204162863,52513,329710,320430
1631204162873,52511,329690,320435
1631204162883,52513,329716,320433
1631204162893,52507,329693,320423
1631204162903,52503,329718,320458
1631204162913,52498,329741,320416
1631204162923,52503,329693,320412
1631204162933,52502,329694,320413
1631204162943,52501,329696,320373
1631204162953,52499,329698,320404
1631204162963,52487,329645,320406
1631204162973,52491,329715,320406
1631204162983,52495,329640,320376
1631204162993,52507,329673,320404
1631204163003,52516,329711,320379
1631204163013,52518,329711,320446
1631204163023,52528,329741,320408
1631204163033,52532,329723,320423
1631204163043,52543,329688,320427
1631204163053,52527,329701,320427
1631204163063,52536,329737,320411
1631204163073,52543,329724,320402
1631204163083,52551,329715,320411
1631204163093,52560,329699,320378
1631204163103,52556,329753,320425
1631204163113,52566,329753,320380
1631204163123,52564,329735,320372
1631204163133,52574,329728,320422
1631204163143,52580,329724,320417
1631204163153,52589,329772,320412
1631204163163,52596,329764,320411
1631204163173,52614,329771,320426
1631204163183,52621,329738,320394
1631204163193,52621,329751,320424
1631204163203,52630,329822,320417
1631204163213,52623,329808,320374
1631204163223,52625,329727,320427
1631204163233,52643,329771,320408
1631204163243,52642,329758,320388
1631204163253,52645,329792,320370
1631204163263,52658,329787,320375
1631204163273,52655,329837,320330
1631204163283,52654,329824,320316
1631204163293,52652,329763,320325
1631204163303,52656,329791,320338
1631204163313,52665,329795,320290
1631204163323,52676,329808,320313
1631204163333,52683,329830,320268
1631204163343,52689,329833,320288
1631204163353,52702,329849,320314
1631204163363,52709,329839,320319
1631204163373,52712,329843,320317
1631204163383,52719,329837,320285
1631204163393,52725,329850,320269
1631204163403,52747,329827,320287
1631204163413,52748,329833,320244
1631204163423,52733,329799,320203
1631204163433,52716,329797,320238
1631204163443,52703,329806,320223
1631204163453,52679,329709,320179
1631204163463,52652,329725,320133
1631204163473,52629,329689,320148
1631204163483,52612,329668,320144
1631204163493,52587,329660,320128
1631204163503,52564,329619,320099
1631204163513,52549,329599,320094
1631204163523,52533,329621,320075
1631204163533,52522,329592,320059
1631204163543,52499,329583,320041
1631204163553,52501,329587,320062
1631204163563,52476,329537,320032
1631204163573,52468,329551,320004
1631204163583,52443,329481,319964
1631204163593,52436,329509,320017
1631204163603,52429,329549,319972
1631204163613,52418,329529,319970
1631204163623,52414,329508,319981
1631204163633,52407,329516,319992
1631204163643,52404,329504,319978
1631204163653,52408,329489,319957
1631204163663,52410,329491,319951
1631204163673,52402,329543,319946
1631204163683,52407,329523,319978
1631204163693,52405,329482,319946
1631204163703,52404,329560,319947
1631204163713,52394,329497,319982
1631204163723,52393,329507,319955
1631204163733,52388,329517,319959
1631204163743,52393,329495,319949
1631204163753,52388,329520,319925
1631204163763,52375,329495,319940
1631204163773,52395,329507,319915
1631204163783,52393,329492,319928
1631204163793,52378,329534,319921
1631204163803,52393,329534,319921
1631204163813,52397,329479,319941
1631204163823,52398,329521,319923
1631204163833,52404,329523,319926
1631204163843,52397,329500,319905
1631204163853,52390,329540,319908
1631204163863,52404,329529,319948
1631204163873,52403,329487,319932
1631204163883,52415,329555,319923
1631204163893,52435,329523,319945
1631204163903,52426,329515,319932
1631204163913,52432,329576,319920
1631204163923,52455,329564,319956
1631204163933,52458,329532,319944
1631204163943,52460,329548,319911
1631204163953,52467,329567,319900
1631204163963,52478,329564,319925
1631204163973,52483,329566,319929
1631204163983,52488,329571,319943
1631204163993,52497,329596,319945
1631204164003,52503,329599,319923
1631204164013,52508,329616,319943
1631204164023,52527,329582,319967
1631204164033,52532,329629,319986
1631204164043,52546,329578,319972
1631204164053,52549,329650,319945
1631204164063,52555,329628,319977
1631204164073,52554,329623,319990
1631204164083,52571,329643,319927
1631204164093,52568,329634,319969
1631204164103,52571,329610,319970
1631204164113,52569,329617,319929
1631204164123,52567,329599,319938
1631204164133,52577,329555,319911
1631204164143,52560,329573,319894
1631204164153,52566,329535,319849
1631204164163,52558,329570,319861
1631204164173,52544,329553,319792
1631204164183,52550,329535,319821
1631204164193,52551,329546,319804
1631204164203,52543,329538,319755
1631204164213,52549,329531,319767
1631204164223,52557,329546,319757
1631204164233,52555,329506,319728
1631204164243,52551,329515,319703
1631204164253,52541,329500,319686
1631204164263,52536,329434,319671
1631204164273,52529,329460,319616
1631204164283,52523,329359,319643
1631204164293,52499,329333,319593
1631204164303,52460,329307,319551
1631204164313,52437,329305,319515
1631204164323,52407,329253,319524
1631204164333,52371,329206,319477
1631204164343,52340,329203,319480
1631204164353,52317,329169,319457
1631204164363,52307,329190,319441
1631204164373,52278,329067,319419
1631204164383,52256,329076,319405
1631204164393,52239,329123,319394
1631204164403,52206,329045,319318
1631204164413,52186,329017,319368
1631204164423,52168,329025,319338
1631204164433,52159,329041,319260
1631204164443,52142,328984,319263
1631204164453,52116,329001,319264
1631204164463,52099,328968,319226
1631204164473,52087,328938,319207
1631204164483,52079,328922,319197
1631204164493,52058,328897,319183
1631204164503,52036,328893,319162
1631204164513,52025,328843,319154
1631204164523,52011,328855,319096
1631204164533,51992,328834,319082
1631204164543,51981,328810,319027
1631204164553,51955,328789,319023
1631204164563,51950,328768,318989
1631204164573,51931,328760,318988
1631204164583,51914,328718,318974
1631204164593,51904,328692,318941
1631204164603,51898,328702,318908
1631204164613,51882,328657,318860
1631204164623,51866,328696,318856
1631204164633,51869,328600,318829
1631204164643,51863,328631,318804
1631204164653,51844,328624,318753
1631204164663,51828,328561,318705
1631204164673,51832,328569,318707
1631204164683,51841,328565,318683
1631204164693,51827,328554,318702
1631204164703,51833,328593,318672
1631204164713,51832,328592,318655
1631204164723,51828,328495,318682
1631204164733,51814,328571,318608
1631204164743,51814,328487,318593
1631204164753,51807,328514,318559
1631204164763,51812,328475,318533
1631204164773,51808,328491,318499
1631204164783,51799,328495,318475
1631204164793,51781,328434,318460
1631204164803,51796,328460,318429
1631204164813,51784,328432,318392
1631204164823,51788,328446,318428
1631204164833,51798,328456,318438
1631204164843,51795,328488,318454
1631204164853,51816,328494,318460
1631204164863,51821,328492,318448
1631204164873,51828,328470,318423
1631204164883,51841,328520,318492
1631204164893,51861,328487,318456
1631204164903,51869,328508,318473
1631204164913,51878,328501,318499
1631204164923,51900,328549,318510
1631204164933,51919,328574,318513
1631204164943,51918,328553,318549
1631204164953,51932,328539,318543
1631204164963,51938,328593,318512
1631204164973,51942,328570,318499
1631204164983,51949,328568,318574
1631204164993,51963,328573,318504
1631204165003,51967,328624,318529
1631204165013,51993,328610,318505
1631204165023,51992,328611,318558
1631204165033,52029,328636,318587
1631204165043,52052,328680,318660
1631204165053,52089,328744,318684
1631204165063,52106,328788,318754
1631204165073,52129,328766,318775
1631204165083,52154,328794,318825
1631204165093,52176,328839,318822
1631204165103,52198,328797,318865
1631204165113,52214,328854,318881
1631204165123,52223,328844,318891
1631204165133,52229,328879,318863
1631204165143,52224,328853,318865
1631204165153,52203,328844,318842
1631204165163,52186,328774,318833
1631204165173,52174,328759,318794
1631204165183,52154,328778,318789
1631204165193,52115,328721,318748
1631204165203,52093,328735,318713
1631204165213,52065,328643,318668
1631204165223,52038,328649,318672
1631204165233,52014,328669,318650
1631204165243,51994,328603,318634
1631204165253,51978,328608,318618
1631204165263,51954,328519,318596
1631204165273,51938,328599,318567
1631204165283,51918,328534,318549
1631204165293,51893,328551,318490
1631204165303,51863,328500,318475
1631204165313,51834,328505,318421
1631204165323,51800,328490,318386
1631204165333,51782,328449,318282
1631204165343,51739,328405,318234
1631204165353,51725,328383,318224
1631204165363,51702,328315,318197
1631204165373,51688,328348,318146
1631204165383,51664,328359,318118
1631204165393,51643,328359,318060
1631204165403,51630,328304,318081
1631204165413,51631,328328,318099
1631204165423,51625,328309,318112
1631204165433,51625,328311,318054
1631204165443,51626,328293,318070
1631204165453,51626,328345,318040
1631204165463,51632,328346,318099
1631204165473,51624,328339,318101
1631204165483,51622,328349,318133
1631204165493,51638,328380,318155
1631204165503,51666,328385,318123
1631204165513,51656,328377,318163
1631204165523,51670,328395,318198
1631204165533,51668,328402,318223
1631204165543,51678,328427,318201
1631204165553,51685,328451,318204
1631204165563,51665,328396,318121
1631204165573,51668,328429,318236
1631204165583,51666,328442,318162
1631204165593,51682,328440,318164
1631204165603,51684,328475,318135
1631204165613,51675,328483,318192
1631204165623,51693,328479,318153
1631204165633,51701,328490,318151
1631204165643,51705,328503,318204
1631204165653,51728,328549,318203
1631204165663,51740,328537,318226
1631204165673,51750,328533,318218
1631204165683,51758,328580,318205
1631204165693,51771,328601,318283
1631204165703,51796,328575,318250
1631204165713,51784,328585,318272
1631204165723,51792,328549,318279
1631204165733,51804,328613,318271
1631204165743,51808,328618,318273
1631204165753,51834,328594,318303
1631204165763,51833,328636,318247
1631204165773,51838,328654,318291
1631204165783,51847,328612,318269
1631204165793,51861,328650,318272
1631204165803,51871,328654,318317
1631204165813,51875,328703,318355
1631204165823,51889,328692,318309
1631204165833,51913,328693,318304
1631204165843,51905,328716,318327
1631204165853,51919,328724,318306
1631204165863,51914,328684,318330
1631204165873,51905,328716,318260
1631204165883,51903,328643,318227
1631204165893,51912,328707,318199
1631204165903,51916,328627,318216
1631204165913,51907,328707,318197
1631204165923,51918,328699,318198
1631204165933,51939,328696,318203
1631204165943,51956,328639,318203
1631204165953,51963,328745,318220
1631204165963,51968,328699,318233
1631204165973,51967,328707,318190
1631204165983,51980,328696,318181
1631204165993,52001,328739,318231
1631204166003,51989,328727,318240
1631204166013,52021,328746,318176
1631204166023,52012,328769,318221
1631204166033,51993,328706,318202
1631204166043,51963,328664,318127
1631204166053,51945,328573,318114
1631204166063,51917,328631,318073
1631204166073,51884,328561,317989
1631204166083,51846,328514,317973
1631204166093,51812,328482,317909
1631204166103,51760,328429,317783
1631204166113,51708,328381,317699
1631204166123,51657,328289,317570
1631204166133,51580,328185,317339
1631204166143,51500,328073,317208
1631204166153,51450,328021,317050
1631204166163,51400,328004,317010
1631204166173,51402,327980,317015
1631204166183,51371,327951,316999
1631204166193,51330,327909,316903
1631204166203,51306,327885,316862
1631204166213,51267,327832,316809
1631204166223,51225,327748,316742
1631204166233,51185,327711,316647
1631204166243,51142,327612,316573
1631204166253,51086,327597,316437
1631204166263,51035,327508,316349
1631204166273,50983,327493,316244
1631204166283,50927,327382,316165
1631204166293,50891,327289,316088
1631204166303,50835,327196,315975
1631204166313,50796,327179,315867
1631204166323,50785,327154,315887
1631204166333,50778,327156,315873
1631204166343,50750,327076,315842
1631204166353,50746,327093,315788
1631204166363,50728,327081,315803
1631204166373,50711,327117,315733
1631204166383,50707,327103,315743
1631204166393,50715,327126,315769
1631204166403,50727,327143,315810
1631204166413,50743,327152,315813
1631204166423,50747,327158,315845
1631204166433,50754,327145,315863
1631204166443,50764,327167,315913
1631204166453,50765,327222,315922
1631204166463,50796,327282,315970
1631204166473,50807,327266,315996
1631204166483,50837,327346,316073
1631204166493,50861,327386,316087
1631204166503,50883,327376,316154
1631204166513,50918,327423,316230
1631204166523,50937,327435,316289
1631204166533,50968,327497,316366
1631204166543,50997,327538,316452
1631204166553,51028,327601,316525
1631204166563,51068,327640,316618
1631204166573,51119,327700,316685
1631204166583,51161,327831,316788
1631204166593,51199,327847,316869
1631204166603,51241,327891,316933
1631204166613,51275,327974,317030
1631204166623,51300,327987,317055
1631204166633,51334,328071,317132
1631204166643,51362,328089,317225
1631204166653,51366,328116,317227
1631204166663,51400,328130,317291
1631204166673,51428,328148,317352
1631204166683,51440,328183,317352
1631204166693,51455,328241,317345
1631204166703,51468,328200,317392
1631204166713,51478,328202,317437
1631204166723,51498,328254,317423
1631204166733,51506,328247,317469
1631204166743,51519,328289,317459
1631204166753,51545,328320,317483
1631204166763,51545,328315,317486
1631204166773,51554,328300,317479
1631204166783,51545,328312,317451
1631204166793,51555,328287,317438
1631204166803,51578,328291,317435
1631204166813,51577,328315,317439
1631204166823,51570,328269,317411
1631204166833,51586,328310,317456
1631204166843,51578,328344,317432
1631204166853,51577,328308,317478
1631204166863,51579,328242,317448
1631204166873,51578,328290,317471
1631204166883,51559,328305,317441
1631204166893,51544,328248,317454
1631204166903,51517,328210,317408
1631204166913,51496,328190,317412
1631204166923,51481,328206,317384
1631204166933,51457,328192,317415
1631204166943,51450,328214,317419
1631204166953,51437,328173,317419
1631204166963,51423,328199,317456
1631204166973,51417,328211,317429
1631204166983,51420,328186,317432
1631204166993,51400,328181,317412
1631204167003,51385,328200,317422
1631204167013,51391,328175,317457
1631204167023,51385,328205,317447
1631204167033,51379,328192,317453
1631204167043,51369,328191,317475
1631204167053,51385,328176,317458
1631204167063,51382,328184,317503
1631204167073,51386,328251,317518
1631204167083,51384,328250,317553
1631204167093,51381,328245,317556
1631204167103,51413,328255,317620
1631204167113,51410,328243,317614
1631204167123,51432,328267,317663
1631204167133,51420,328305,317717
1631204167143,51439,328310,317728
1631204167153,51440,328346,317756
1631204167163,51459,328366,317779
1631204167173,51467,328375,317836
1631204167183,51490,328400,317932
1631204167193,51515,328400,317985
1631204167203,51545,328482,318017
1631204167213,51584,328553,318129
1631204167223,51603,328586,318230
1631204167233,51645,328604,318289
1631204167243,51675,328651,318363
1631204167253,51697,328721,318388
1631204167263,51722,328693,318489
1631204167273,51744,328754,318523
1631204167283,51771,328740,318557
1631204167293,51773,328756,318592
1631204167303,51787,328732,318614
1631204167313,51783,328775,318581
1631204167323,51769,328730,318544
1631204167333,51758,328754,318502
1631204167343,51749,328768,318475
1631204167353,51748,328753,318481
1631204167363,51753,328676,318468
1631204167373,51764,328725,318479
1631204167383,51761,328698,318472
1631204167393,51761,328682,318440
1631204167403,51756,328683,318470
1631204167413,51765,328717,318451
1631204167423,51762,328735,318419
1631204167433,51762,328727,318392
1631204167443,51770,328719,318378
1631204167453,51781,328715,318400
1631204167463,51763,328723,318397
1631204167473,51793,328706,318406
1631204167483,51812,328705,318443
1631204167493,51813,328740,318459
1631204167503,51823,328749,318478
1631204167513,51828,328709,318488
1631204167523,51836,328753,318448
1631204167533,51826,328734,318458
1631204167543,51840,328708,318430
1631204167553,51846,328760,318431
1631204167563,51850,328722,318456
1631204167573,51852,328736,318432
1631204167583,51843,328739,318375
1631204167593,51843,328726,318342
1631204167603,51831,328692,318321
1631204167613,51849,328685,318301
1631204167623,51833,328672,318265
1631204167633,51840,328657,318236
1631204167643,51825,328682,318249
1631204167653,51816,328594,318257
1631204167663,51805,328581,318184
1631204167673,51783,328572,318199
1631204167683,51762,328575,318182
1631204167693,51741,328546,318140
1631204167703,51727,328493,318146
1631204167713,51708,328466,318161
1631204167723,51694,328503,318179
1631204167733,51671,328454,318180
1631204167743,51662,328456,318153
1631204167753,51644,328469,318156
1631204167763,51642,328434,318137
1631204167773,51614,328446,318119
1631204167783,51616,328472,318176
1631204167793,51617,328438,318171
1631204167803,51605,328423,318154
1631204167813,51581,328384,318150
1631204167823,51573,328403,318142
1631204167833,51562,328379,318112
1631204167843,51560,328371,318103
1631204167853,51552,328400,318119
1631204167863,51535,328416,318100
1631204167873,51540,328411,318125
1631204167883,51528,328403,318065
1631204167893,51537,328421,318077
1631204167903,51533,328382,318050
1631204167913,51520,328389,318099
1631204167923,51522,328375,318082
1631204167933,51533,328359,318102
1631204167943,51536,328368,318112
1631204167953,51532,328405,318135
1631204167963,51543,328438,318168
1631204167973,51534,328362,318201
1631204167983,51547,328401,318192
1631204167993,51557,328426,318210
1631204168003,51561,328460,318257
1631204168013,51572,328470,318227
1631204168023,51576,328429,318265
1631204168033,51583,328467,318251
1631204168043,51581,328491,318236
1631204168053,51571,328471,318217
1631204168063,51572,328407,318210
1631204168073,51584,328465,318233
1631204168083,51577,328438,318206
1631204168093,51572,328440,318243
1631204168103,51599,328464,318205
1631204168113,51603,328495,318233
1631204168123,51619,328491,318274
1631204168133,51636,328471,318293
1631204168143,51640,328528,318315
1631204168153,51652,328526,318294
1631204168163,51658,328534,318351
1631204168173,51669,328522,318326
1631204168183,51675,328494,318312
1631204168193,51672,328532,318269
1631204168203,51681,328566,318298
1631204168213,51680,328538,318275
1631204168223,51692,328529,318245
1631204168233,51678,328529,318276
1631204168243,51685,328518,318301
1631204168253,51709,328537,318292
1631204168263,51712,328533,318299
1631204168273,51725,328571,318298
1631204168283,51714,328548,318239
1631204168293,51741,328558,318272
1631204168303,51758,328562,318327
1631204168313,51759,328621,318326
1631204168323,51777,328580,318324
1631204168333,51776,328613,318340
1631204168343,51799,328600,318410
1631204168353,51817,328659,318406
1631204168363,51842,328644,318407
1631204168373,51856,328671,318437
1631204168383,51858,328680,318414
1631204168393,51859,328675,318426
1631204168403,51852,328695,318382
1631204168413,51858,328710,318397
1631204168423,51859,328688,318370
1631204168433,51838,328619,318314
1631204168443,51832,328613,318289
1631204168453,51806,328596,318309
1631204168463,51797,328583,318276
1631204168473,51774,328547,318247
1631204168483,51735,328490,318208
1631204168493,51710,328457,318219
1631204168503,51684,328466,318229
1631204168513,51674,328444,318202
1631204168523,51653,328423,318160
1631204168533,51618,328386,318148
1631204168543,51606,328395,318179
1631204168553,51588,328384,318120
1631204168563,51574,328372,318109
1631204168573,51567,328324,318091
1631204168583,51555,328326,318090
1631204168593,51538,328317,318067
1631204168603,51510,328336,318012
1631204168613,51510,328324,318078
1631204168623,51504,328334,318077
1631204168633,51495,328325,318055
1631204168643,51491,328359,318082
1631204168653,51491,328332,318051
1631204168663,51500,328370,318073
1631204168673,51495,328336,318056
1631204168683,51503,328350,318073
1631204168693,51511,328350,318060
1631204168703,51504,328359,318063
1631204168713,51493,328352,318085
1631204168723,51484,328344,318099
1631204168733,51484,328307,318096
1631204168743,51494,328348,318102
1631204168753,51494,328354,318120
1631204168763,51511,328301,318131
1631204168773,51508,328350,318187
1631204168783,51513,328405,318201
1631204168793,51532,328402,318181
1631204168803,51537,328381,318231
1631204168813,51541,328432,318217
1631204168823,51569,328459,318293
1631204168833,51583,328509,318315
1631204168843,51599,328475,318336
1631204168853,51597,328480,318338
1631204168863,51598,328479,318333
1631204168873,51611,328487,318345
1631204168883,51621,328508,318340
1631204168893,51617,328485,318365
1631204168903,51636,328467,318383
1631204168913,51640,328520,318332
1631204168923,51663,328514,318387
1631204168933,51668,328551,318404
1631204168943,51671,328562,318376
1631204168953,51680,328580,318423
1631204168963,51687,328544,318421
1631204168973,51696,328573,318432
1631204168983,51701,328611,318398
1631204168993,51703,328572,318404
1631204169003,51709,328545,318424
1631204169013,51710,328571,318370
1631204169023,51719,328571,318387
1631204169033,51725,328577,318376
1631204169043,51721,328587,318387
1631204169053,51728,328625,318385
1631204169063,51752,328621,318426
1631204169073,51760,328599,318409
1631204169083,51776,328670,318382
1631204169093,51765,328590,318369
1631204169103,51757,328641,318384
1631204169113,51788,328615,318380
1631204169123,51794,328663,318398
1631204169133,51809,328652,318421
1631204169143,51814,328681,318408
1631204169153,51825,328658,318448
1631204169163,51848,328683,318378
1631204169173,51848,328681,318428
1631204169183,51848,328660,318486
1631204169193,51873,328709,318403
1631204169203,51874,328685,318426
1631204169213,51886,328697,318434
1631204169223,51907,328738,318462
1631204169233,51907,328744,318517
1631204169243,51902,328739,318514
1631204169253,51899,328681,318485
1631204169263,51899,328653,318488
1631204169273,51876,328737,318493
1631204169283,51846,328665,318499
1631204169293,51827,328655,318478
1631204169303,51806,328680,318483
1631204169313,51799,328657,318510
1631204169323,51803,328639,318501
1631204169333,51797,328616,318517
1631204169343,51786,328673,318530
1631204169353,51781,328643,318516
1631204169363,51764,328605,318524
1631204169373,51759,328635,318502
1631204169383,51756,328656,318516
1631204169393,51753,328628,318492
1631204169403,51750,328622,318506
1631204169413,51745,328619,318515
1631204169423,51744,328642,318482
1631204169433,51738,328608,318521
1631204169443,51728,328608,318474
1631204169453,51727,328614,318503
1631204169463,51729,328619,318483
1631204169473,51728,328613,318511
1631204169483,51736,328636,318527
1631204169493,51745,328686,318516
1631204169503,51742,328657,318510
1631204169513,51734,328647,318486
1631204169523,51725,328666,318490
1631204169533,51724,328649,318520
1631204169543,51740,328654,318490
1631204169553,51725,328608,318508
1631204169563,51724,328596,318539
1631204169573,51709,328625,318469
1631204169583,51715,328644,318501
1631204169593,51713,328639,318490
1631204169603,51709,328601,318481
1631204169613,51718,328635,318519
1631204169623,51722,328620,318490
1631204169633,51738,328643,318537
1631204169643,51725,328609,318507
1631204169653,51731,328636,318496
1631204169663,51745,328643,318535
1631204169673,51761,328657,318517
1631204169683,51771,328670,318512
1631204169693,51773,328616,318530
1631204169703,51785,328662,318520
1631204169713,51777,328642,318531
1631204169723,51776,328643,318542
1631204169733,51804,328686,318539
1631204169743,51810,328661,318568
1631204169753,51825,328700,318613
1631204169763,51838,328733,318629
1631204169773,51846,328749,318650
1631204169783,51853,328786,318607
1631204169793,51873,328799,318637
1631204169803,51880,328759,318639
1631204169813,51896,328793,318655
1631204169823,51898,328800,318638
1631204169833,51905,328804,318663
1631204169843,51903,328781,318671
1631204169853,51908,328788,318662
1631204169863,51927,328770,318671
1631204169873,51946,328789,318642
1631204169883,51948,328815,318681
1631204169893,51955,328828,318661
1631204169903,51975,328835,318666
1631204169913,51973,328859,318710
1631204169923,51992,328838,318723
1631204169933,52001,328864,318707
1631204169943,52003,328893,318697
1631204169953,52015,328898,318668
1631204169963,52038,328910,318742
1631204169973,52033,328881,318744
1631204169983,52048,328891,318747
1631204169993,52043,328904,318729
1631204170003,52037,328888,318752
1631204170013,52033,328886,318724
1631204170023,52019,328825,318676
1631204170033,52006,328816,318700
1631204170043,51977,328807,318633
1631204170053,51974,328764,318650
1631204170063,51947,328741,318670
1631204170073,51932,328777,318657
1631204170083,51901,328789,318651
1631204170093,51899,328749,318639
1631204170103,51881,328787,318661
1631204170113,51878,328761,318670
1631204170123,51879,328745,318646
1631204170133,51870,328766,318678
1631204170143,51866,328743,318704
1631204170153,51859,328762,318695
1631204170163,51852,328743,318692
1631204170173,51850,328745,318699
1631204170183,51860,328751,318739
1631204170193,51850,328717,318713
1631204170203,51840,328742,318668
1631204170213,51845,328775,318691
1631204170223,51832,328750,318673
1631204170233,51824,328728,318723
1631204170243,51835,328752,318690
1631204170253,51840,328732,318716
1631204170263,51827,328745,318701
1631204170273,51819,328719,318694
1631204170283,51824,328645,318658
1631204170293,51812,328752,318659
1631204170303,51805,328732,318670
1631204170313,51810,328730,318667
1631204170323,51807,328721,318656
1631204170333,51806,328710,318691
1631204170343,51807,328734,318734
1631204170353,51830,328725,318692
1631204170363,51832,328729,318750
1631204170373,51847,328735,318744
1631204170383,51846,328773,318749
1631204170393,51870,328799,318803
1631204170403,51880,328814,318797
1631204170413,51890,328820,318838
1631204170423,51903,328864,318857
1631204170433,51912,328831,318886
1631204170443,51920,328866,318872
1631204170453,51920,328857,318878
1631204170463,51934,328840,318867
1631204170473,51938,328878,318861
1631204170483,51935,328882,318894
1631204170493,51946,328854,318873
1631204170503,51957,328864,318890
