timestamp,green,ir,red
1631204135236,36723,260378,258785
1631204135246,36740,260408,258799
1631204135256,36762,260406,258809
1631204135266,36776,260484,258816
1631204135276,36793,260426,258811
1631204135286,36809,260488,258839
1631204135296,36827,260482,258858
1631204135306,36848,260473,258867
1631204135316,36862,260511,258859
1631204135326,36885,260488,258895
1631204135336,36894,260546,258873
1631204135346,36924,260535,258870
1631204135356,36930,260550,258901
1631204135366,36942,260590,258889
1631204135376,36963,260616,258920
1631204135386,36985,260627,258921
1631204135396,36998,260651,258922
1631204135406,37032,260643,258934
1631204135416,37051,260676,258969
1631204135426,37064,260727,258946
1631204135436,37090,260722,258981
1631204135446,37103,260776,258962
1631204135456,37106,260728,259015
1631204135466,37119,260710,258977
1631204135476,37105,260645,258997
1631204135486,37086,260696,258969
1631204135496,37069,260668,258966
1631204135506,37049,260570,258950
1631204135516,37002,260558,258934
1631204135526,36978,260530,258931
1631204135536,36937,260498,258941
1631204135546,36909,260469,258885
1631204135556,36879,260415,258903
1631204135566,36849,260447,258922
1631204135576,36819,260399,258868
1631204135586,36796,260367,258901
1631204135596,36768,260324,258842
1631204135606,36746,260338,258839
1631204135616,36720,260313,258827
1631204135626,36700,260289,258855
1631204135636,36668,260262,258847
1631204135646,36657,260245,258819
1631204135656,36646,260276,258780
1631204135666,36631,260249,258778
1631204135676,36618,260227,258795
1631204135686,36594,260194,258805
1631204135696,36582,260173,258787
1631204135706,36579,260199,258773
1631204135716,36572,260143,258780
1631204135726,36572,260178,258790
1631204135736,36570,260137,258758
1631204135746,36563,260165,258792
1631204135756,36561,260175,258782
1631204135766,36553,260149,258764
1631204135776,36544,260208,258775
1631204135786,36540,260163,258760
1631204135796,36543,260146,258749
1631204135806,36533,260135,258779
1631204135816,36535,260178,258736
1631204135826,36529,260144,258772
1631204135836,36529,260167,258760
1631204135846,36520,260178,258723
1631204135856,36515,260131,258752
1631204135866,36524,260137,258740
1631204135876,36516,260178,258762
1631204135886,36512,260162,258723
1631204135896,36529,260159,258752
1631204135906,36526,260178,258761
1631204135916,36540,260188,258708
1631204135926,36553,260204,258723
1631204135936,36558,260209,258722
1631204135946,36566,260217,258733
1631204135956,36574,260243,258736
1631204135966,36583,260229,258736
1631204135976,36598,260257,258743
1631204135986,36608,260267,258732
1631204135996,36613,260293,258748
1631204136006,36624,260305,258741
1631204136016,36643,260326,258770
1631204136026,36652,260325,258753
1631204136036,36665,260347,258762
1631204136046,36677,260331,258797
1631204136056,36699,260361,258802
1631204136066,36715,260378,258801
1631204136076,36732,260420,258802
1631204136086,36743,260417,258828
1631204136096,36767,260438,258835
1631204136106,36779,260454,258838
1631204136116,36791,260452,258871
1631204136126,36804,260510,258859
1631204136136,36825,260506,258873
1631204136146,36841,260487,258865
1631204136156,36857,260503,258877
1631204136166,36873,260525,258882
1631204136176,36889,260613,258893
1631204136186,36903,260538,258870
1631204136196,36919,260624,258917
1631204136206,36939,260606,258939
1631204136216,36950,260599,258928
1631204136226,36976,260604,258937
1631204136236,36989,260628,258928
1631204136246,37008,260642,258953
1631204136256,37033,260692,258980
1631204136266,37050,260716,258981
1631204136276,37063,260683,258986
1631204136286,37097,260756,259036
1631204136296,37104,260758,259009
1631204136306,37119,260771,259027
1631204136316,37156,260780,259012
1631204136326,37170,260767,259027
1631204136336,37190,260872,259046
1631204136346,37203,260864,259019
1631204136356,37219,260875,259055
1631204136366,37235,260886,259068
1631204136376,37256,260941,259073
1631204136386,37255,260911,259077
1631204136396,37256,260887,259079
1631204136406,37232,260863,259057
1631204136416,37219,260851,259045
1631204136426,37185,260809,259079
1631204136436,37161,260766,259026
1631204136446,37132,260725,259024
1631204136456,37115,260715,259011
1631204136466,37082,260701,258984
1631204136476,37050,260674,258977
1631204136486,37021,260627,258980
1631204136496,37015,260626,258977
1631204136506,36995,260654,258977
1631204136516,36972,260572,258985
1631204136526,36965,260567,258965
1631204136536,36950,260588,258960
1631204136546,36941,260540,258980
1631204136556,36926,260568,258977
1631204136566,36913,260558,258954
1631204136576,36904,260555,258960
1631204136586,36896,260508,258970
1631204136596,36887,260557,258949
1631204136606,36898,260577,258949
1631204136616,36890,260546,258963
1631204136626,36899,260550,258974
1631204136636,36901,260542,258969
1631204136646,36906,260537,258982
1631204136656,36903,260586,259000
1631204136666,36903,260556,258970
1631204136676,36897,260539,258951
1631204136686,36896,260527,258954
1631204136696,36897,260580,258961
1631204136706,36901,260514,258979
1631204136716,36897,260517,258986
1631204136726,36893,260606,258978
1631204136736,36898,260560,258976
1631204136746,36899,260551,258983
1631204136756,36897,260550,258982
1631204136766,36901,260536,258958
1631204136776,36923,260550,258983
1631204136786,36918,260569,258967
1631204136796,36928,260590,258993
1631204136806,36936,260571,259002
1631204136816,36942,260607,259004
1631204136826,36946,260555,258952
1631204136836,36955,260635,258958
1631204136846,36969,260571,258991
1631204136856,36978,260640,258994
1631204136866,36989,260635,259023
1631204136876,36993,260658,259004
1631204136886,37013,260653,258984
1631204136896,37026,260697,259013
1631204136906,37030,260689,259010
1631204136916,37051,260688,259001
1631204136926,37065,260721,259035
1631204136936,37076,260726,259021
1631204136946,37103,260754,259039
1631204136956,37110,260773,259048
1631204136966,37129,260800,259039
1631204136976,37143,260826,259078
1631204136986,37156,260845,259043
1631204136996,37170,260830,259066
1631204137006,37188,260791,259112
1631204137016,37205,260887,259079
1631204137026,37216,260872,259113
1631204137036,37239,260839,259079
1631204137046,37253,260884,259130
1631204137056,37274,260919,259130
1631204137066,37287,260914,259140
1631204137076,37304,260916,259183
1631204137086,37326,260948,259119
1631204137096,37342,260978,259157
1631204137106,37342,260985,259156
1631204137116,37380,261002,259165
1631204137126,37386,261017,259193
1631204137136,37416,261051,259188
1631204137146,37419,261021,259203
1631204137156,37434,261095,259180
1631204137166,37455,261122,259202
1631204137176,37473,261122,259215
1631204137186,37497,261101,259186
1631204137196,37505,261146,259227
1631204137206,37535,261165,259194
1631204137216,37560,261216,259233
1631204137226,37581,261212,259268
1631204137236,37591,261221,259271
1631204137246,37620,261232,259263
1631204137256,37643,261268,259308
1631204137266,37658,261261,259304
1631204137276,37670,261284,259314
1631204137286,37678,261247,259304
1631204137296,37679,261261,259285
1631204137306,37666,261239,259310
1631204137316,37636,261210,259289
1631204137326,37612,261196,259260
1631204137336,37583,261129,259267
1631204137346,37551,261132,259246
1631204137356,37516,261063,259213
1631204137366,37484,261014,259206
1631204137376,37452,261015,259158
1631204137386,37416,260980,259183
1631204137396,37384,260965,259167
1631204137406,37355,260951,259169
1631204137416,37330,260901,259165
1631204137426,37312,260925,259139
1631204137436,37283,260859,259129
1631204137446,37263,260913,259102
1631204137456,37253,260859,259085
1631204137466,37225,260864,259108
1631204137476,37202,260825,259082
1631204137486,37177,260822,259066
1631204137496,37172,260802,259067
1631204137506,37159,260839,259046
1631204137516,37149,260831,259041
1631204137526,37140,260798,259026
1631204137536,37142,260847,259019
1631204137546,37119,260841,259080
1631204137556,37128,260813,259055
1631204137566,37122,260833,259030
1631204137576,37115,260794,259029
1631204137586,37110,260805,259012
1631204137596,37105,260818,259046
1631204137606,37098,260810,259032
1631204137616,37109,260777,259035
1631204137626,37102,260812,258996
1631204137636,37094,260802,259042
1631204137646,37090,260851,259014
1631204137656,37094,260835,259012
1631204137666,37085,260822,259055
1631204137676,37091,260828,259028
1631204137686,37094,260831,259026
1631204137696,37101,260828,259035
1631204137706,37106,260831,259003
1631204137716,37103,260857,259015
1631204137726,37119,260799,259022
1631204137736,37120,260844,259009
1631204137746,37125,260861,259048
1631204137756,37142,260901,259015
1631204137766,37162,260887,259012
1631204137776,37166,260892,259012
1631204137786,37157,260953,259014
1631204137796,37192,260914,259032
1631204137806,37195,260945,259023
1631204137816,37201,260974,259042
1631204137826,37213,260963,259070
1631204137836,37225,260958,259055
1631204137846,37246,261050,259060
1631204137856,37263,261014,259069
1631204137866,37275,261044,259080
1631204137876,37287,261036,259100
1631204137886,37309,261028,259087
1631204137896,37315,261102,259097
1631204137906,37327,261125,259088
1631204137916,37344,261138,259095
1631204137926,37361,261108,259119
1631204137936,37374,261150,259140
1631204137946,37386,261166,259122
1631204137956,37408,261165,259130
1631204137966,37423,261189,259150
1631204137976,37442,261211,259150
1631204137986,37464,261227,259151
1631204137996,37489,261268,259183
1631204138006,37509,261279,259173
1631204138016,37523,261278,259153
1631204138026,37541,261291,259200
1631204138036,37556,261319,259199
1631204138046,37570,261330,259202
1631204138056,37592,261333,259223
1631204138066,37610,261374,259217
1631204138076,37625,261441,259229
1631204138086,37656,261409,259230
1631204138096,37663,261435,259260
1631204138106,37699,261461,259272
1631204138116,37713,261505,259249
1631204138126,37736,261533,259301
1631204138136,37757,261544,259262
1631204138146,37777,261542,259318
1631204138156,37790,261606,259299
1631204138166,37822,261612,259338
1631204138176,37835,261641,259352
1631204138186,37850,261666,259329
1631204138196,37865,261604,259324
1631204138206,37871,261581,259349
1631204138216,37867,261598,259333
1631204138226,37840,261565,259343
1631204138236,37829,261568,259304
1631204138246,37789,261497,259313
1631204138256,37768,261464,259302
1631204138266,37733,261422,259297
1631204138276,37690,261390,259278
1631204138286,37655,261381,259262
1631204138296,37618,261319,259248
1631204138306,37589,261330,259226
1631204138316,37560,261298,259220
1631204138326,37535,261268,259227
1631204138336,37510,261291,259189
1631204138346,37490,261274,259181
1631204138356,37467,261265,259190
1631204138366,37437,261239,259182
1631204138376,37423,261207,259184
1631204138386,37402,261181,259161
1631204138396,37390,261183,259167
1631204138406,37365,261160,259131
1631204138416,37344,261184,259141
1631204138426,37336,261151,259140
1631204138436,37318,261139,259127
1631204138446,37312,261140,259109
1631204138456,37305,261191,259131
1631204138466,37305,261127,259146
1631204138476,37302,261157,259158
1631204138486,37292,261144,259135
1631204138496,37293,261151,259123
1631204138506,37288,261166,259129
1631204138516,37280,261145,259153
1631204138526,37275,261149,259131
1631204138536,37278,261160,259115
1631204138546,37263,261157,259108
1631204138556,37259,261136,259111
1631204138566,37261,261149,259127
1631204138576,37259,261190,259136
1631204138586,37260,261144,259140
1631204138596,37253,261110,259117
1631204138606,37267,261154,259158
1631204138616,37265,261176,259128
1631204138626,37264,261159,259131
1631204138636,37265,261152,259128
1631204138646,37275,261172,259123
1631204138656,37292,261151,259114
1631204138666,37295,261193,259133
1631204138676,37297,261195,259147
1631204138686,37302,261183,259170
1631204138696,37310,261225,259119
1631204138706,37323,261238,259158
1631204138716,37337,261225,259135
1631204138726,37345,261220,259156
1631204138736,37365,261260,259135
1631204138746,37372,261270,259118
1631204138756,37381,261282,259156
1631204138766,37398,261313,259121
1631204138776,37403,261305,259173
1631204138786,37425,261320,259164
1631204138796,37437,261356,259182
1631204138806,37452,261323,259171
1631204138816,37468,261381,259188
1631204138826,37483,261394,259193
1631204138836,37497,261396,259186
1631204138846,37512,261468,259178
1631204138856,37525,261419,259206
1631204138866,37537,261438,259213
1631204138876,37550,261455,259196
1631204138886,37570,261458,259243
1631204138896,37579,261480,259245
1631204138906,37608,261544,259235
1631204138916,37625,261507,259250
1631204138926,37640,261534,259263
1631204138936,37649,261542,259262
1631204138946,37665,261568,259278
1631204138956,37686,261551,259264
1631204138966,37702,261626,259295
1631204138976,37722,261602,259294
1631204138986,37745,261663,259301
1631204138996,37760,261653,259290
1631204139006,37783,261681,259291
1631204139016,37798,261689,259339
1631204139026,37810,261705,259354
1631204139036,37832,261744,259352
1631204139046,37843,261776,259365
1631204139056,37873,261792,259369
1631204139066,37898,261808,259368
1631204139076,37918,261816,259379
1631204139086,37938,261803,259411
1631204139096,37949,261844,259395
1631204139106,37954,261815,259389
1631204139116,37967,261812,259398
1631204139126,37954,261767,259389
1631204139136,37947,261775,259382
1631204139146,37917,261761,259375
1631204139156,37887,261734,259329
1631204139166,37857,261675,259348
1631204139176,37818,261600,259356
1631204139186,37780,261591,259302
1631204139196,37753,261570,259327
1631204139206,37719,261544,259291
1631204139216,37696,261528,259259
1631204139226,37671,261533,259273
1631204139236,37635,261543,259245
1631204139246,37613,261494,259265
1631204139256,37599,261470,259239
1631204139266,37582,261495,259237
1631204139276,37555,261444,259242
1631204139286,37543,261478,259220
1631204139296,37522,261443,259208
1631204139306,37506,261434,259227
1631204139316,37494,261376,259212
1631204139326,37481,261420,259204
1631204139336,37474,261409,259202
1631204139346,37462,261399,259179
1631204139356,37460,261410,259218
1631204139366,37463,261453,259217
1631204139376,37458,261370,259192
1631204139386,37457,261422,259207
1631204139396,37453,261365,259189
1631204139406,37448,261395,259159
1631204139416,37437,261399,259166
1631204139426,37442,261367,259180
1631204139436,37431,261397,259206
1631204139446,37426,261371,259179
1631204139456,37424,261380,259183
1631204139466,37416,261382,259186
1631204139476,37420,261391,259193
1631204139486,37420,261393,259181
1631204139496,37416,261417,259203
1631204139506,37412,261384,259189
1631204139516,37411,261393,259224
1631204139526,37419,261407,259173
1631204139536,37418,261387,259196
1631204139546,37425,261436,259183
1631204139556,37436,261439,259168
1631204139566,37441,261478,259202
1631204139576,37451,261432,259205
1631204139586,37458,261469,259167
1631204139596,37464,261483,259190
1631204139606,37476,261496,259192
1631204139616,37481,261504,259165
1631204139626,37497,261493,259218
1631204139636,37506,261490,259216
1631204139646,37518,261531,259194
1631204139656,37531,261514,259205
1631204139666,37543,261537,259205
1631204139676,37557,261534,259219
1631204139686,37567,261563,259220
1631204139696,37589,261585,259206
1631204139706,37588,261579,259209
1631204139716,37600,261622,259271
1631204139726,37632,261652,259234
1631204139736,37636,261645,259244
1631204139746,37658,261635,259257
1631204139756,37668,261661,259258
1631204139766,37682,261649,259260
1631204139776,37694,261721,259293
1631204139786,37708,261709,259274
1631204139796,37723,261760,259314
1631204139806,37742,261767,259310
1631204139816,37762,261798,259311
1631204139826,37773,261756,259290
1631204139836,37784,261790,259315
1631204139846,37799,261768,259320
1631204139856,37816,261793,259310
1631204139866,37841,261814,259342
1631204139876,37856,261823,259366
1631204139886,37879,261857,259361
1631204139896,37888,261846,259370
1631204139906,37911,261873,259412
1631204139916,37933,261875,259381
1631204139926,37943,261923,259386
1631204139936,37961,261926,259393
1631204139946,37981,261923,259404
1631204139956,37993,261914,259412
1631204139966,38012,261987,259392
1631204139976,38031,261968,259448
1631204139986,38052,261957,259428
1631204139996,38050,261994,259438
1631204140006,38037,261936,259441
1631204140016,38032,261940,259421
1631204140026,37988,261890,259422
1631204140036,37957,261856,259395
1631204140046,37926,261851,259411
1631204140056,37894,261811,259382
1631204140066,37849,261732,259358
1631204140076,37809,261733,259404
1631204140086,37773,261676,259304
1631204140096,37734,261670,259348
1631204140106,37708,261671,259328
1631204140116,37678,261658,259317
1631204140126,37651,261599,259299
1631204140136,37614,261575,259303
1631204140146,37602,261561,259261
1631204140156,37571,261543,259260
1631204140166,37556,261523,259274
1631204140176,37537,261541,259243
1631204140186,37503,261478,259252
1631204140196,37490,261456,259243
1631204140206,37468,261470,259213
1631204140216,37456,261472,259231
1631204140226,37437,261440,259214
1631204140236,37438,261491,259216
1631204140246,37431,261451,259203
1631204140256,37426,261443,259219
1631204140266,37413,261475,259214
1631204140276,37406,261423,259175
1631204140286,37400,261437,259184
1631204140296,37396,261423,259214
1631204140306,37385,261389,259211
1631204140316,37386,261446,259236
1631204140326,37381,261448,259223
1631204140336,37370,261413,259178
1631204140346,37362,261431,259206
1631204140356,37361,261425,259229
1631204140366,37343,261372,259204
1631204140376,37339,261416,259213
1631204140386,37348,261375,259174
1631204140396,37346,261419,259211
1631204140406,37343,261412,259179
1631204140416,37354,261414,259182
1631204140426,37350,261388,259232
1631204140436,37352,261416,259200
1631204140446,37366,261428,259165
1631204140456,37364,261469,259188
1631204140466,37372,261444,259194
1631204140476,37377,261419,259199
1631204140486,37390,261462,259190
1631204140496,37394,261468,259205
1631204140506,37402,261449,259191
1631204140516,37409,261482,259193
1631204140526,37413,261455,259203
1631204140536,37429,261524,259191
1631204140546,37445,261516,259183
1631204140556,37445,261515,259161
1631204140566,37456,261527,259201
1631204140576,37471,261534,259181
1631204140586,37474,261580,259195
1631204140596,37489,261539,259197
1631204140606,37513,261569,259187
1631204140616,37527,261605,259199
1631204140626,37544,261618,259217
1631204140636,37551,261612,259224
1631204140646,37561,261663,259249
1631204140656,37572,261637,259216
1631204140666,37596,261627,259233
1631204140676,37599,261669,259228
1631204140686,37620,261642,259250
1631204140696,37632,261695,259276
1631204140706,37651,261718,259254
1631204140716,37668,261728,259239
1631204140726,37685,261697,259258
1631204140736,37692,261738,259299
1631204140746,37710,261761,259281
1631204140756,37733,261799,259306
1631204140766,37746,261790,259299
1631204140776,37761,261822,259304
1631204140786,37783,261771,259290
1631204140796,37792,261811,259324
1631204140806,37810,261859,259319
1631204140816,37830,261863,259309
1631204140826,37852,261899,259346
1631204140836,37854,261886,259352
1631204140846,37881,261920,259335
1631204140856,37896,261932,259342
1631204140866,37917,261944,259374
1631204140876,37936,261967,259382
1631204140886,37940,261937,259369
1631204140896,37935,261923,259377
1631204140906,37919,261889,259346
1631204140916,37890,261852,259355
1631204140926,37861,261861,259306
1631204140936,37823,261790,259314
1631204140946,37790,261734,259308
1631204140956,37743,261727,259299
1631204140966,37709,261708,259275
1631204140976,37671,261661,259277
1631204140986,37636,261636,259261
1631204140996,37602,261602,259249
1631204141006,37565,261564,259238
1631204141016,37540,261519,259227
1631204141026,37508,261524,259190
1631204141036,37473,261488,259201
1631204141046,37447,261488,259193
1631204141056,37419,261467,259184
1631204141066,37395,261487,259175
1631204141076,37373,261433,259168
1631204141086,37361,261416,259169
1631204141096,37324,261396,259147
1631204141106,37300,261383,259149
1631204141116,37285,261392,259109
1631204141126,37271,261353,259099
1631204141136,37259,261337,259122
1631204141146,37251,261345,259119
1631204141156,37245,261375,259094
1631204141166,37229,261366,259112
1631204141176,37233,261375,259074
1631204141186,37233,261336,259079
1631204141196,37212,261306,259045
1631204141206,37203,261338,259093
1631204141216,37189,261315,259053
1631204141226,37185,261355,259062
1631204141236,37175,261312,259043
1631204141246,37180,261308,259060
1631204141256,37172,261336,259057
1631204141266,37166,261317,259026
1631204141276,37166,261300,259064
1631204141286,37159,261293,259035
1631204141296,37166,261294,259054
1631204141306,37164,261286,259026
1631204141316,37165,261311,259020
1631204141326,37166,261242,259046
1631204141336,37179,261293,259068
1631204141346,37180,261291,259043
1631204141356,37183,261350,259030
1631204141366,37187,261369,259060
1631204141376,37196,261350,259004
1631204141386,37201,261354,259026
1631204141396,37212,261353,259033
1631204141406,37220,261349,259066
1631204141416,37235,261380,259048
1631204141426,37239,261408,259062
1631204141436,37255,261424,259075
1631204141446,37260,261396,259065
1631204141456,37275,261399,259073
1631204141466,37283,261442,259056
1631204141476,37296,261438,259065
1631204141486,37327,261468,259085
1631204141496,37328,261444,259090
1631204141506,37340,261456,259091
1631204141516,37358,261498,259072
1631204141526,37369,261496,259097
1631204141536,37390,261491,259113
1631204141546,37398,261525,259128
1631204141556,37408,261524,259093
1631204141566,37423,261527,259123
1631204141576,37432,261576,259105
1631204141586,37456,261544,259108
1631204141596,37471,261530,259131
1631204141606,37480,261553,259122
1631204141616,37492,261596,259138
1631204141626,37504,261603,259131
1631204141636,37531,261646,259137
1631204141646,37534,261647,259143
1631204141656,37563,261643,259170
1631204141666,37569,261657,259159
1631204141676,37594,261682,259177
1631204141686,37607,261684,259175
1631204141696,37621,261723,259183
1631204141706,37642,261703,259165
1631204141716,37652,261735,259207
1631204141726,37684,261749,259208
1631204141736,37704,261749,259197
1631204141746,37713,261778,259220
1631204141756,37732,261802,259227
1631204141766,37747,261843,259239
1631204141776,37761,261805,259233
1631204141786,37754,261772,259227
1631204141796,37744,261769,259231
1631204141806,37715,261719,259221
1631204141816,37696,261724,259235
1631204141826,37652,261674,259171
1631204141836,37620,261608,259179
1631204141846,37583,261587,259166
1631204141856,37549,261596,259184
1631204141866,37509,261521,259154
1631204141876,37472,261495,259120
1631204141886,37436,261505,259133
1631204141896,37407,261480,259106
1631204141906,37383,261468,259117
1631204141916,37360,261431,259079
1631204141926,37335,261383,259103
1631204141936,37310,261389,259091
1631204141946,37283,261398,259055
1631204141956,37264,261351,259043
1631204141966,37247,261335,259035
1631204141976,37218,261360,259046
1631204141986,37206,261315,259041
1631204141996,37183,261279,259019
1631204142006,37175,261318,259032
1631204142016,37164,261289,258982
1631204142026,37166,261299,259024
1631204142036,37157,261307,259030
1631204142046,37153,261280,259018
1631204142056,37149,261269,259010
1631204142066,37141,261289,259039
1631204142076,37137,261252,259039
1631204142086,37126,261278,258988
1631204142096,37122,261242,258998
1631204142106,37112,261260,259004
1631204142116,37100,261241,259002
1631204142126,37105,261228,259016
1631204142136,37105,261215,259012
1631204142146,37085,261211,258978
1631204142156,37080,261196,259010
1631204142166,37089,261203,258972
1631204142176,37080,261242,259029
1631204142186,37083,261223,259010
1631204142196,37082,261253,259005
1631204142206,37087,261205,259008
1631204142216,37092,261216,259032
1631204142226,37101,261213,259040
1631204142236,37101,261238,259033
1631204142246,37101,261227,259025
1631204142256,37106,261244,259037
1631204142266,37110,261242,259004
1631204142276,37124,261259,259004
1631204142286,37113,261270,259003
1631204142296,37140,261269,259006
1631204142306,37154,261278,259009
1631204142316,37158,261256,259003
1631204142326,37159,261297,258987
1631204142336,37174,261317,259010
1631204142346,37173,261305,259018
1631204142356,37191,261310,259010
1631204142366,37205,261329,259020
1631204142376,37217,261329,259010
1631204142386,37235,261353,259037
1631204142396,37241,261388,259044
1631204142406,37254,261372,259030
1631204142416,37267,261351,259042
1631204142426,37274,261387,259051
1631204142436,37289,261377,259041
1631204142446,37305,261396,259086
1631204142456,37321,261435,259053
1631204142466,37340,261415,259087
1631204142476,37351,261447,259080
1631204142486,37362,261469,259078
1631204142496,37368,261467,259112
1631204142506,37388,261501,259088
1631204142516,37404,261491,259059
1631204142526,37416,261523,259101
1631204142536,37434,261564,259098
1631204142546,37449,261527,259116
1631204142556,37469,261544,259134
1631204142566,37487,261574,259147
1631204142576,37500,261594,259137
1631204142586,37516,261616,259151
1631204142596,37531,261595,259140
1631204142606,37546,261630,259159
1631204142616,37568,261643,259165
1631204142626,37590,261670,259201
1631204142636,37606,261617,259152
1631204142646,37603,261627,259150
1631204142656,37593,261614,259184
1631204142666,37573,261581,259153
1631204142676,37549,261576,259148
1631204142686,37510,261535,259157
1631204142696,37484,261496,259110
1631204142706,37444,261440,259110
1631204142716,37399,261414,259087
1631204142726,37374,261408,259096
1631204142736,37323,261353,259066
1631204142746,37292,261338,259057
1631204142756,37267,261325,259045
1631204142766,37236,261337,259029
1631204142776,37207,261298,259022
1631204142786,37193,261245,259051
1631204142796,37162,261262,259026
1631204142806,37135,261245,259016
1631204142816,37113,261165,259003
1631204142826,37100,261192,258984
1631204142836,37071,261147,258995
1631204142846,37047,261100,258996
1631204142856,37030,261146,258944
1631204142866,37025,261119,258979
1631204142876,37010,261126,258964
1631204142886,37009,261105,258964
1631204142896,37003,261120,258939
1631204142906,37001,261096,258983
1631204142916,36992,261104,258935
1631204142926,36979,261076,258965
1631204142936,36974,261103,258965
1631204142946,36968,261091,258977
1631204142956,36951,261081,258952
1631204142966,36952,261038,258970
1631204142976,36939,261055,258950
1631204142986,36935,261072,258915
1631204142996,36935,261020,258935
1631204143006,36929,261063,258926
1631204143016,36917,261063,258923
1631204143026,36922,261073,258939
1631204143036,36919,261057,258933
1631204143046,36910,261010,258937
1631204143056,36915,261030,258908
1631204143066,36927,261054,258925
1631204143076,36929,261049,258967
1631204143086,36929,261039,258950
1631204143096,36938,261061,258941
1631204143106,36945,261027,258925
1631204143116,36953,261073,258952
1631204143126,36953,261023,258918
1631204143136,36961,261062,258940
1631204143146,36967,261050,258924
1631204143156,36975,261065,258940
1631204143166,36988,261104,258925
1631204143176,36994,261120,258907
1631204143186,37012,261112,258942
1631204143196,37017,261116,258950
1631204143206,37027,261131,258953
1631204143216,37037,261166,258946
1631204143226,37047,261149,258979
1631204143236,37064,261123,258924
1631204143246,37068,261192,258948
1631204143256,37085,261182,259006
1631204143266,37101,261166,258980
1631204143276,37118,261210,258983
1631204143286,37127,261213,258998
1631204143296,37126,261223,259013
1631204143306,37150,261230,259009
1631204143316,37163,261236,259016
1631204143326,37171,261245,259010
1631204143336,37188,261250,259031
1631204143346,37202,261299,259036
1631204143356,37214,261293,259028
1631204143366,37234,261344,259012
1631204143376,37241,261288,259062
1631204143386,37264,261342,259068
1631204143396,37275,261342,259055
1631204143406,37287,261335,259078
1631204143416,37305,261378,259043
1631204143426,37320,261371,259076
1631204143436,37346,261374,259057
1631204143446,37353,261414,259067
1631204143456,37369,261389,259089
1631204143466,37391,261462,259092
1631204143476,37402,261455,259116
1631204143486,37442,261449,259084
1631204143496,37443,261497,259111
1631204143506,37460,261467,259117
1631204143516,37474,261517,259109
1631204143526,37484,261518,259116
1631204143536,37484,261458,259129
1631204143546,37474,261438,259131
1631204143556,37445,261435,259114
1631204143566,37419,261356,259127
1631204143576,37382,261363,259112
1631204143586,37338,261310,259076
1631204143596,37309,261280,259061
1631204143606,37260,261227,259066
1631204143616,37231,261181,259062
1631204143626,37185,261185,259021
1631204143636,37156,261154,259020
1631204143646,37107,261136,258991
1631204143656,37081,261093,258998
1631204143666,37056,261046,258958
1631204143676,37017,261049,258958
1631204143686,36991,261015,258937
1631204143696,36968,261022,258932
1631204143706,36935,260967,258932
1631204143716,36908,260948,258918
1631204143726,36881,260937,258914
1631204143736,36857,260952,258913
1631204143746,36833,260913,258858
1631204143756,36813,260890,258908
1631204143766,36807,260900,258902
1631204143776,36779,260807,258881
1631204143786,36782,260848,258875
1631204143796,36776,260847,258882
1631204143806,36755,260807,258866
1631204143816,36751,260808,258848
1631204143826,36738,260829,258851
1631204143836,36729,260823,258870
1631204143846,36717,260807,258853
1631204143856,36708,260794,258876
1631204143866,36705,260793,258869
1631204143876,36698,260769,258879
1631204143886,36692,260773,258844
1631204143896,36679,260760,258846
1631204143906,36674,260766,258837
1631204143916,36664,260777,258828
1631204143926,36675,260737,258846
1631204143936,36678,260788,258821
1631204143946,36662,260724,258821
1631204143956,36670,260762,258814
1631204143966,36667,260725,258828
1631204143976,36679,260764,258832
1631204143986,36681,260752,258827
1631204143996,36686,260796,258838
1631204144006,36685,260758,258841
1631204144016,36693,260822,258838
1631204144026,36705,260808,258842
1631204144036,36703,260741,258834
1631204144046,36712,260809,258851
1631204144056,36722,260810,258869
1631204144066,36726,260805,258863
1631204144076,36734,260813,258862
1631204144086,36755,260856,258847
1631204144096,36761,260839,258872
1631204144106,36770,260835,258876
1631204144116,36773,260843,258874
1631204144126,36792,260840,258873
1631204144136,36799,260849,258887
1631204144146,36815,260874,258895
1631204144156,36828,260864,258906
1631204144166,36844,260900,258906
1631204144176,36865,260947,258904
1631204144186,36875,260919,258947
1631204144196,36884,260937,258922
1631204144206,36903,260968,258937
1631204144216,36908,260954,258915
1631204144226,36924,260967,258936
1631204144236,36943,260999,258939
1631204144246,36951,260998,258917
1631204144256,36965,261044,258951
1631204144266,36982,260978,258964
1631204144276,36983,261021,258963
1631204144286,37016,261042,258970
1631204144296,37027,261052,258974
1631204144306,37044,261072,258986
1631204144316,37054,261090,258989
1631204144326,37070,261065,258986
1631204144336,37088,261102,259017
1631204144346,37108,261094,259001
1631204144356,37129,261135,259023
1631204144366,37148,261132,259006
1631204144376,37162,261173,259041
1631204144386,37179,261169,259055
1631204144396,37197,261192,259042
1631204144406,37211,261179,259052
1631204144416,37237,261228,259073
1631204144426,37231,261200,259086
1631204144436,37243,261180,259096
1631204144446,37224,261151,259109
1631204144456,37203,261142,259060
1631204144466,37163,261085,259100
1631204144476,37130,261085,259068
1631204144486,37094,261028,259030
1631204144496,37058,260996,258998
1631204144506,37029,260960,259025
1631204144516,36980,260933,259002
1631204144526,36944,260910,258999
1631204144536,36915,260893,258966
1631204144546,36884,260829,258956
1631204144556,36849,260803,258946
1631204144566,36825,260756,258955
1631204144576,36794,260769,258923
1631204144586,36763,260720,258923
1631204144596,36732,260733,258929
1631204144606,36712,260677,258916
1631204144616,36684,260639,258892
1631204144626,36665,260624,258864
1631204144636,36638,260624,258913
1631204144646,36619,260614,258868
1631204144656,36597,260629,258876
1631204144666,36596,260564,258875
1631204144676,36583,260592,258912
1631204144686,36575,260595,258871
1631204144696,36574,260572,258874
1631204144706,36563,260517,258825
1631204144716,36554,260553,258864
1631204144726,36547,260553,258851
1631204144736,36536,260473,258849
1631204144746,36540,260556,258837
1631204144756,36532,260481,258834
1631204144766,36516,260501,258823
1631204144776,36508,260502,258815
1631204144786,36504,260487,258814
1631204144796,36493,260523,258831
1631204144806,36501,260506,258831
1631204144816,36487,260476,258848
1631204144826,36493,260454,258824
1631204144836,36492,260484,258808
1631204144846,36489,260473,258828
1631204144856,36500,260475,258804
1631204144866,36500,260478,258847
1631204144876,36505,260492,258840
1631204144886,36520,260477,258835
1631204144896,36515,260527,258849
1631204144906,36530,260485,258848
1631204144916,36524,260475,258866
1631204144926,36538,260497,258876
1631204144936,36542,260505,258896
1631204144946,36546,260471,258879
1631204144956,36558,260514,258850
1631204144966,36577,260491,258876
1631204144976,36583,260523,258893
1631204144986,36584,260511,258874
1631204144996,36601,260485,258877
1631204145006,36615,260540,258884
1631204145016,36613,260525,258906
1631204145026,36639,260539,258889
1631204145036,36646,260543,258899
1631204145046,36659,260563,258886
1631204145056,36674,260573,258918
1631204145066,36670,260574,258937
1631204145076,36695,260609,258927
1631204145086,36705,260609,258927
1631204145096,36726,260575,258925
1631204145106,36735,260630,258932
1631204145116,36740,260639,258937
1631204145126,36756,260655,258919
1631204145136,36773,260664,258962
1631204145146,36797,260685,258974
1631204145156,36803,260683,258969
1631204145166,36821,260705,258980
1631204145176,36834,260701,258978
1631204145186,36847,260698,259007
1631204145196,36860,260725,258985
1631204145206,36876,260750,259020
1631204145216,36897,260737,259016
1631204145226,36921,260801,259045
1631204145236,36942,260775,259029
1631204145246,36953,260795,259058
1631204145256,36968,260836,259063
1631204145266,36985,260859,259044
1631204145276,37005,260814,259059
1631204145286,37021,260840,259096
1631204145296,37035,260857,259103
1631204145306,37051,260903,259099
1631204145316,37060,260857,259104
1631204145326,37077,260887,259138
1631204145336,37084,260866,259136
1631204145346,37061,260831,259103
1631204145356,37045,260784,259146
1631204145366,37014,260770,259101
1631204145376,36979,260730,259136
1631204145386,36954,260716,259091
1631204145396,36917,260689,259115
1631204145406,36879,260646,259070
1631204145416,36865,260575,259102
1631204145426,36827,260577,259076
1631204145436,36800,260565,259064
1631204145446,36778,260476,259052
1631204145456,36756,260495,259065
1631204145466,36742,260473,259051
1631204145476,36715,260446,259077
1631204145486,36686,260427,259091
1631204145496,36671,260400,259046
1631204145506,36657,260390,259047
1631204145516,36635,260368,259031
1631204145526,36613,260358,259064
1631204145536,36599,260326,259045
1631204145546,36594,260294,259019
1631204145556,36593,260243,259028
1631204145566,36572,260309,259006
1631204145576,36572,260298,259007
1631204145586,36567,260290,259030
1631204145596,36555,260281,259019
1631204145606,36546,260267,259011
1631204145616,36533,260252,258973
1631204145626,36527,260243,258965
1631204145636,36523,260213,259010
1631204145646,36511,260237,258987
1631204145656,36506,260221,258985
1631204145666,36499,260220,258971
1631204145676,36492,260169,258983
1631204145686,36488,260161,258980
1631204145696,36488,260151,258923
1631204145706,36469,260155,258947
1631204145716,36480,260179,258949
1631204145726,36476,260217,258936
1631204145736,36461,260163,258925
1631204145746,36468,260167,258939
1631204145756,36476,260182,258965
1631204145766,36477,260172,258948
1631204145776,36477,260178,258956
1631204145786,36483,260178,258960
1631204145796,36491,260180,258935
1631204145806,36496,260186,258947
1631204145816,36498,260184,258934
1631204145826,36499,260166,258921
1631204145836,36512,260158,258941
1631204145846,36516,260211,258971
1631204145856,36526,260172,258972
1631204145866,36543,260177,258979
1631204145876,36546,260197,258987
1631204145886,36560,260177,259026
1631204145896,36562,260175,259059
1631204145906,36582,260193,259042
1631204145916,36574,260200,259045
1631204145926,36594,260210,259050
1631204145936,36590,260203,259039
1631204145946,36602,260182,259039
1631204145956,36613,260206,259036
1631204145966,36613,260199,259043
1631204145976,36631,260235,259042
1631204145986,36628,260242,259022
1631204145996,36645,260225,259014
1631204146006,36657,260233,259047
1631204146016,36665,260265,259008
1631204146026,36680,260255,259051
1631204146036,36682,260274,259053
1631204146046,36696,260265,259082
1631204146056,36701,260286,259040
1631204146066,36713,260305,259063
1631204146076,36731,260286,259070
1631204146086,36735,260293,259043
1631204146096,36741,260329,259034
1631204146106,36756,260377,259051
1631204146116,36753,260306,259025
1631204146126,36769,260377,259046
1631204146136,36790,260385,259038
1631204146146,36803,260426,259054
1631204146156,36805,260449,259061
1631204146166,36823,260393,259049
1631204146176,36834,260427,259024
1631204146186,36847,260400,259054
1631204146196,36861,260459,259112
1631204146206,36858,260449,259077
1631204146216,36855,260400,259061
1631204146226,36847,260420,259076
1631204146236,36814,260323,259071
1631204146246,36782,260338,259071
1631204146256,36747,260239,259034
1631204146266,36704,260220,259043
1631204146276,36652,260170,259000
1631204146286,36628,260125,259016
1631204146296,36581,260075,258989
1631204146306,36556,260048,258956
1631204146316,36525,260014,258952
1631204146326,36479,259960,258971
1631204146336,36447,259967,258906
1631204146346,36425,259982,258918
1631204146356,36394,259892,258898
1631204146366,36371,259850,258895
1631204146376,36343,259868,258864
1631204146386,36303,259828,258878
1631204146396,36277,259810,258821
1631204146406,36253,259801,258824
1631204146416,36224,259758,258837
1631204146426,36201,259752,258825
1631204146436,36198,259727,258788
1631204146446,36177,259683,258803
1631204146456,36160,259701,258791
1631204146466,36135,259666,258781
1631204146476,36117,259695,258728
1631204146486,36111,259677,258716
1631204146496,36095,259643,258751
1631204146506,36075,259635,258723
1631204146516,36067,259650,258693
1631204146526,36045,259607,258664
1631204146536,36031,259620,258663
1631204146546,36038,259625,258653
1631204146556,36022,259637,258634
1631204146566,36012,259572,258666
1631204146576,36010,259614,258653
1631204146586,36005,259590,258639
1631204146596,36000,259564,258626
1631204146606,36001,259603,258683
1631204146616,35993,259643,258639
1631204146626,35997,259569,258658
1631204146636,36001,259559,258662
1631204146646,35988,259540,258630
1631204146656,35989,259590,258615
1631204146666,35993,259537,258624
1631204146676,35984,259596,258638
1631204146686,35984,259603,258639
1631204146696,35987,259607,258620
1631204146706,36000,259617,258637
1631204146716,35999,259618,258603
1631204146726,35995,259633,258608
1631204146736,35993,259628,258605
1631204146746,36009,259631,258559
1631204146756,36008,259638,258596
1631204146766,36017,259639,258583
1631204146776,36020,259697,258551
1631204146786,36030,259661,258585
1631204146796,36038,259672,258558
1631204146806,36044,259720,258583
1631204146816,36046,259714,258589
1631204146826,36059,259729,258577
1631204146836,36060,259756,258572
1631204146846,36084,259762,258580
1631204146856,36090,259782,258555
1631204146866,36094,259808,258574
1631204146876,36109,259798,258559
1631204146886,36116,259811,258573
1631204146896,36137,259833,258575
1631204146906,36153,259892,258605
1631204146916,36161,259891,258595
1631204146926,36183,259903,258599
1631204146936,36195,259906,258622
1631204146946,36202,259928,258646
1631204146956,36217,259947,258585
1631204146966,36237,259925,258638
1631204146976,36246,259970,258642
1631204146986,36266,259994,258646
1631204146996,36287,260014,258649
1631204147006,36296,260029,258671
1631204147016,36313,260039,258670
1631204147026,36344,260070,258683
1631204147036,36360,260058,258704
1631204147046,36368,260122,258713
1631204147056,36383,260133,258722
1631204147066,36396,260115,258702
1631204147076,36410,260148,258716
1631204147086,36418,260165,258740
1631204147096,36424,260129,258733
1631204147106,36419,260112,258719
1631204147116,36417,260098,258727
1631204147126,36390,260091,258710
1631204147136,36364,260068,258704
1631204147146,36334,260045,258690
1631204147156,36295,260031,258633
1631204147166,36266,259985,258615
1631204147176,36233,259975,258620
1631204147186,36190,259886,258622
1631204147196,36156,259867,258605
1631204147206,36138,259863,258569
1631204147216,36103,259853,258563
1631204147226,36086,259859,258528
1631204147236,36057,259815,258554
1631204147246,36039,259791,258504
1631204147256,36013,259761,258515
1631204147266,35998,259766,258506
1631204147276,35977,259749,258467
1631204147286,35952,259750,258444
1631204147296,35940,259734,258488
1631204147306,35918,259729,258455
1631204147316,35910,259743,258455
1631204147326,35893,259701,258439
1631204147336,35886,259697,258425
1631204147346,35878,259703,258441
1631204147356,35879,259739,258421
1631204147366,35864,259684,258434
1631204147376,35857,259699,258387
1631204147386,35855,259711,258422
1631204147396,35850,259709,258436
1631204147406,35848,259707,258411
1631204147416,35847,259692,258437
1631204147426,35843,259684,258414
1631204147436,35840,259713,258431
1631204147446,35836,259684,258381
1631204147456,35828,259660,258424
1631204147466,35828,259688,258380
1631204147476,35832,259679,258430
1631204147486,35832,259672,258404
1631204147496,35829,259708,258391
1631204147506,35835,259656,258407
1631204147516,35839,259700,258390
1631204147526,35831,259699,258396
1631204147536,35842,259701,258376
1631204147546,35838,259705,258384
1631204147556,35845,259749,258386
1631204147566,35857,259723,258361
1631204147576,35864,259758,258377
1631204147586,35868,259758,258366
1631204147596,35880,259778,258346
1631204147606,35895,259781,258400
1631204147616,35899,259758,258400
1631204147626,35914,259779,258388
1631204147636,35919,259821,258399
1631204147646,35933,259832,258405
1631204147656,35951,259836,258404
1631204147666,35956,259832,258399
1631204147676,35965,259887,258391
1631204147686,35977,259924,258414
1631204147696,35994,259880,258415
1631204147706,36009,259885,258428
1631204147716,36021,259938,258403
1631204147726,36035,259928,258425
1631204147736,36050,259952,258456
1631204147746,36055,259947,258456
1631204147756,36068,259975,258452
1631204147766,36083,259979,258451
1631204147776,36097,260009,258455
1631204147786,36111,260023,258465
1631204147796,36128,260071,258492
1631204147806,36146,260068,258444
1631204147816,36160,260098,258485
1631204147826,36175,260122,258464
1631204147836,36198,260105,258471
1631204147846,36216,260091,258520
1631204147856,36224,260144,258480
1631204147866,36238,260144,258515
1631204147876,36252,260177,258538
1631204147886,36272,260171,258552
1631204147896,36301,260184,258541
1631204147906,36321,260216,258567
1631204147916,36338,260260,258580
1631204147926,36345,260212,258567
1631204147936,36365,260275,258563
1631204147946,36389,260287,258585
1631204147956,36396,260302,258568
1631204147966,36417,260323,258589
1631204147976,36410,260322,258584
1631204147986,36402,260267,258596
1631204147996,36383,260286,258581
1631204148006,36363,260264,258583
1631204148016,36340,260220,258565
1631204148026,36311,260211,258588
1631204148036,36295,260168,258523
1631204148046,36260,260150,258536
1631204148056,36239,260110,258535
1631204148066,36209,260075,258510
1631204148076,36196,260108,258478
1631204148086,36169,260065,258501
1631204148096,36161,260048,258490
1631204148106,36143,260014,258494
1631204148116,36113,260031,258459
1631204148126,36114,260011,258463
1631204148136,36095,259988,258468
1631204148146,36079,259989,258474
1631204148156,36077,259959,258462
1631204148166,36056,259937,258446
1631204148176,36051,259920,258453
1631204148186,36040,259960,258430
1631204148196,36038,259955,258449
1631204148206,36038,259960,258457
1631204148216,36045,259958,258445
1631204148226,36047,259955,258454
1631204148236,36040,259940,258467
1631204148246,36045,259995,258445
1631204148256,36043,259980,258463
1631204148266,36036,259929,258467
1631204148276,36032,259963,258453
1631204148286,36030,259967,258433
1631204148296,36033,259940,258427
1631204148306,36033,259977,258437
1631204148316,36031,259979,258415
1631204148326,36031,259962,258439
1631204148336,36037,259949,258403
1631204148346,36027,259981,258432
1631204148356,36040,259930,258461
1631204148366,36045,259997,258432
1631204148376,36055,259989,258442
1631204148386,36059,259980,258438
1631204148396,36069,259982,258456
1631204148406,36069,260030,258413
1631204148416,36088,260027,258460
1631204148426,36099,260034,258440
1631204148436,36104,260030,258440
1631204148446,36114,260048,258470
1631204148456,36126,260068,258490
1631204148466,36136,260111,258481
1631204148476,36152,260111,258476
1631204148486,36161,260095,258485
1631204148496,36187,260126,258495
1631204148506,36190,260141,258472
1631204148516,36207,260162,258489
1631204148526,36214,260154,258494
1631204148536,36229,260157,258494
1631204148546,36249,260180,258523
1631204148556,36264,260205,258543
1631204148566,36279,260261,258536
1631204148576,36293,260224,258550
1631204148586,36308,260252,258557
1631204148596,36325,260274,258559
1631204148606,36338,260254,258564
1631204148616,36354,260287,258562
1631204148626,36365,260302,258589
1631204148636,36392,260357,258575
1631204148646,36399,260366,258601
1631204148656,36424,260315,258578
1631204148666,36441,260363,258606
1631204148676,36450,260391,258622
1631204148686,36477,260402,258616
1631204148696,36494,260430,258641
1631204148706,36514,260445,258634
1631204148716,36535,260446,258642
1631204148726,36546,260467,258668
1631204148736,36570,260535,258625
1631204148746,36595,260554,258703
1631204148756,36606,260536,258678
1631204148766,36631,260607,258691
1631204148776,36650,260581,258677
1631204148786,36661,260612,258705
1631204148796,36689,260574,258702
1631204148806,36702,260638,258703
1631204148816,36699,260604,258706
1631204148826,36689,260599,258713
1631204148836,36681,260564,258670
1631204148846,36664,260570,258703
1631204148856,36636,260535,258678
1631204148866,36616,260508,258679
1631204148876,36585,260474,258670
1631204148886,36556,260451,258655
1631204148896,36532,260407,258648
1631204148906,36512,260433,258619
1631204148916,36480,260430,258658
1631204148926,36456,260323,258620
1631204148936,36437,260350,258606
1631204148946,36404,260331,258612
1631204148956,36390,260273,258578
1631204148966,36385,260291,258568
1631204148976,36370,260310,258608
1631204148986,36342,260253,258564
1631204148996,36327,260217,258562
1631204149006,36310,260234,258544
1631204149016,36298,260226,258555
1631204149026,36289,260237,258563
1631204149036,36279,260235,258571
1631204149046,36272,260256,258575
1631204149056,36271,260221,258562
1631204149066,36269,260214,258557
1631204149076,36261,260241,258516
1631204149086,36271,260227,258548
1631204149096,36265,260232,258550
1631204149106,36265,260213,258551
1631204149116,36265,260220,258559
1631204149126,36256,260232,258553
1631204149136,36262,260240,258524
1631204149146,36248,260230,258535
1631204149156,36245,260200,258500
1631204149166,36251,260219,258523
1631204149176,36245,260216,258525
1631204149186,36249,260221,258503
1631204149196,36251,260221,258532
1631204149206,36250,260227,258546
1631204149216,36250,260188,258519
1631204149226,36255,260245,258518
1631204149236,36265,260258,258525
1631204149246,36270,260238,258553
1631204149256,36283,260266,258571
1631204149266,36296,260249,258567
1631204149276,36301,260263,258558
1631204149286,36304,260289,258570
1631204149296,36312,260265,258556
1631204149306,36334,260319,258589
1631204149316,36341,260299,258561
1631204149326,36352,260353,258602
1631204149336,36364,260320,258596
1631204149346,36377,260312,258616
1631204149356,36387,260340,258598
1631204149366,36394,260379,258613
1631204149376,36413,260374,258604
1631204149386,36425,260412,258634
1631204149396,36434,260398,258614
1631204149406,36456,260399,258648
1631204149416,36465,260468,258636
1631204149426,36478,260446,258651
1631204149436,36505,260480,258656
1631204149446,36519,260490,258644
1631204149456,36526,260475,258657
1631204149466,36545,260495,258659
1631204149476,36558,260534,258679
1631204149486,36580,260519,258709
1631204149496,36591,260524,258702
1631204149506,36605,260555,258683
1631204149516,36616,260610,258721
1631204149526,36649,260619,258705
1631204149536,36658,260640,258742
1631204149546,36680,260609,258715
1631204149556,36694,260624,258732
1631204149566,36710,260675,258747
1631204149576,36722,260670,258748
1631204149586,36739,260638,258727
1631204149596,36756,260687,258756
1631204149606,36782,260736,258774
1631204149616,36790,260758,258772
1631204149626,36827,260789,258781
1631204149636,36832,260769,258814
1631204149646,36850,260797,258803
1631204149656,36869,260805,258818
1631204149666,36887,260853,258834
1631204149676,36898,260851,258841
1631204149686,36905,260802,258843
1631204149696,36897,260801,258835
1631204149706,36886,260777,258831
1631204149716,36865,260739,258827
1631204149726,36840,260740,258812
1631204149736,36808,260707,258802
1631204149746,36782,260652,258753
1631204149756,36755,260605,258773
1631204149766,36722,260577,258757
1631204149776,36702,260514,258764
1631204149786,36667,260563,258772
1631204149796,36637,260532,258703
1631204149806,36610,260528,258729
1631204149816,36586,260470,258716
1631204149826,36561,260456,258691
1631204149836,36543,260470,258706
1631204149846,36525,260417,258713
1631204149856,36509,260428,258689
1631204149866,36488,260403,258694
1631204149876,36465,260385,258658
1631204149886,36462,260405,258668
1631204149896,36431,260386,258691
1631204149906,36420,260336,258666
1631204149916,36411,260328,258662
1631204149926,36410,260341,258681
1631204149936,36397,260341,258662
1631204149946,36398,260353,258665
1631204149956,36388,260311,258622
1631204149966,36390,260334,258645
1631204149976,36386,260318,258610
1631204149986,36384,260330,258635
1631204149996,36383,260300,258648
1631204150006,36369,260303,258616
1631204150016,36369,260316,258653
1631204150026,36370,260289,258632
1631204150036,36362,260314,258650
1631204150046,36354,260301,258600
1631204150056,36345,260302,258639
1631204150066,36347,260300,258649
1631204150076,36355,260293,258660
1631204150086,36339,260289,258618
1631204150096,36353,260330,258619
1631204150106,36360,260316,258638
1631204150116,36371,260329,258655
1631204150126,36368,260334,258642
1631204150136,36375,260364,258603
1631204150146,36379,260350,258627
1631204150156,36390,260350,258633
1631204150166,36404,260358,258642
1631204150176,36402,260367,258651
1631204150186,36420,260365,258650
1631204150196,36429,260374,258654
1631204150206,36434,260353,258651
1631204150216,36449,260385,258635
1631204150226,36461,260378,258661
1631204150236,36470,260466,258662
1631204150246,36486,260412,258663
1631204150256,36502,260459,258684
1631204150266,36517,260397,258660
1631204150276,36524,260483,258689
1631204150286,36541,260464,258708
1631204150296,36556,260510,258685
1631204150306,36573,260508,258718
1631204150316,36581,260498,258715
1631204150326,36603,260544,258667
1631204150336,36609,260566,258731
1631204150346,36621,260538,258731
1631204150356,36648,260591,258728
1631204150366,36652,260594,258748
1631204150376,36670,260589,258729
1631204150386,36687,260609,258751
1631204150396,36698,260589,258752
1631204150406,36722,260663,258784
1631204150416,36728,260614,258779
1631204150426,36748,260687,258770
1631204150436,36765,260697,258804
1631204150446,36794,260680,258779
1631204150456,36800,260691,258813
1631204150466,36817,260685,258784
1631204150476,36834,260720,258809
1631204150486,36856,260752,258804
1631204150496,36878,260765,258822
1631204150506,36891,260810,258854
1631204150516,36915,260831,258860
1631204150526,36930,260839,258838
1631204150536,36950,260850,258892
1631204150546,36961,260835,258892
1631204150556,36981,260869,258897
1631204150566,36995,260877,258880
1631204150576,36996,260887,258890
1631204150586,36984,260858,258892
1631204150596,36982,260793,258851
1631204150606,36957,260803,258900
1631204150616,36934,260787,258895
1631204150626,36902,260713,258869
1631204150636,36868,260706,258845
1631204150646,36850,260676,258842
1631204150656,36809,260680,258843
1631204150666,36793,260637,258774
1631204150676,36758,260635,258807
1631204150686,36730,260599,258804
1631204150696,36706,260572,258780
1631204150706,36682,260543,258749
1631204150716,36664,260543,258787
1631204150726,36637,260552,258779
1631204150736,36625,260492,258748
1631204150746,36614,260476,258741
1631204150756,36586,260456,258745
1631204150766,36575,260441,258774
1631204150776,36548,260444,258741
1631204150786,36537,260448,258740
1631204150796,36528,260432,258732
1631204150806,36513,260420,258717
1631204150816,36508,260388,258714
1631204150826,36515,260393,258742
1631204150836,36511,260406,258724
1631204150846,36508,260395,258723
1631204150856,36498,260433,258679
1631204150866,36494,260406,258715
1631204150876,36486,260398,258729
1631204150886,36492,260420,258698
1631204150896,36473,260382,258715
1631204150906,36476,260391,258694
1631204150916,36479,260416,258719
1631204150926,36474,260374,258705
1631204150936,36464,260375,258728
1631204150946,36461,260351,258714
1631204150956,36454,260391,258709
1631204150966,36454,260373,258683
1631204150976,36475,260378,258706
1631204150986,36465,260362,258704
1631204150996,36469,260366,258684
1631204151006,36467,260365,258702
1631204151016,36478,260362,258707
1631204151026,36486,260376,258712
1631204151036,36497,260414,258735
1631204151046,36497,260404,258705
1631204151056,36501,260406,258702
1631204151066,36521,260419,258734
1631204151076,36525,260409,258728
1631204151086,36545,260444,258715
1631204151096,36553,260446,258702
1631204151106,36554,260455,258743
1631204151116,36573,260487,258732
1631204151126,36585,260457,258711
1631204151136,36593,260522,258751
1631204151146,36606,260487,258765
1631204151156,36625,260489,258739
1631204151166,36643,260521,258765
1631204151176,36646,260543,258775
1631204151186,36658,260595,258772
1631204151196,36674,260572,258759
1631204151206,36687,260559,258780
1631204151216,36719,260618,258792
1631204151226,36728,260598,258789
1631204151236,36748,260636,258800
1631204151246,36758,260642,258825
1631204151256,36774,260642,258809
1631204151266,36784,260679,258812
1631204151276,36804,260687,258820
1631204151286,36816,260683,258837
1631204151296,36840,260730,258838
1631204151306,36857,260739,258851
1631204151316,36874,260768,258842
1631204151326,36885,260769,258834
1631204151336,36911,260745,258889
1631204151346,36926,260766,258887
1631204151356,36947,260792,258894
1631204151366,36960,260838,258909
1631204151376,36979,260872,258911
1631204151386,36991,260804,258928
1631204151396,37027,260878,258923
1631204151406,37029,260841,258937
1631204151416,37052,260914,258954
1631204151426,37072,260903,258939
1631204151436,37076,260893,258951
1631204151446,37082,260928,258972
1631204151456,37089,260920,258953
1631204151466,37068,260881,258954
1631204151476,37053,260816,258947
1631204151486,37020,260848,258928
1631204151496,37001,260785,258925
1631204151506,36966,260711,258938
1631204151516,36938,260738,258900
1631204151526,36911,260687,258889
1631204151536,36887,260675,258893
1631204151546,36867,260671,258843
1631204151556,36844,260602,258887
1631204151566,36814,260638,258876
1631204151576,36805,260611,258866
1631204151586,36781,260620,258850
1631204151596,36766,260560,258861
1631204151606,36745,260554,258833
1631204151616,36728,260563,258849
1631204151626,36724,260544,258830
1631204151636,36710,260530,258825
1631204151646,36698,260507,258776
1631204151656,36697,260538,258824
1631204151666,36679,260527,258815
1631204151676,36678,260525,258813
1631204151686,36677,260498,258813
1631204151696,36669,260503,258849
1631204151706,36685,260509,258829
1631204151716,36673,260555,258820
1631204151726,36674,260507,258833
1631204151736,36672,260517,258830
1631204151746,36668,260489,258803
1631204151756,36666,260461,258795
1631204151766,36656,260502,258802
1631204151776,36656,260488,258804
1631204151786,36651,260492,258775
1631204151796,36652,260473,258793
1631204151806,36656,260489,258794
1631204151816,36653,260510,258805
1631204151826,36660,260490,258762
1631204151836,36656,260495,258789
1631204151846,36658,260479,258813
1631204151856,36665,260460,258803
1631204151866,36672,260479,258805
1631204151876,36677,260494,258800
1631204151886,36687,260521,258805
1631204151896,36707,260510,258826
1631204151906,36705,260557,258798
1631204151916,36715,260562,258823
1631204151926,36717,260558,258809
1631204151936,36732,260555,258814
1631204151946,36746,260543,258820
1631204151956,36756,260565,258804
1631204151966,36776,260591,258818
1631204151976,36787,260613,258836
1631204151986,36792,260605,258823
1631204151996,36806,260626,258844
1631204152006,36817,260649,258855
1631204152016,36841,260675,258853
1631204152026,36849,260661,258884
1631204152036,36862,260704,258839
1631204152046,36878,260656,258869
1631204152056,36893,260687,258859
1631204152066,36899,260695,258903
1631204152076,36925,260742,258874
1631204152086,36940,260761,258907
1631204152096,36951,260738,258930
1631204152106,36975,260781,258922
1631204152116,36992,260835,258913
1631204152126,37006,260824,258940
1631204152136,37021,260816,258958
1631204152146,37034,260828,258941
1631204152156,37050,260852,258996
1631204152166,37074,260873,258945
1631204152176,37085,260885,258973
1631204152186,37096,260873,258960
1631204152196,37129,260935,259005
1631204152206,37140,260939,259006
1631204152216,37145,260931,259003
1631204152226,37167,260907,259039
1631204152236,37190,261005,259012
1631204152246,37211,260998,259030
1631204152256,37226,260961,259000
1631204152266,37246,261024,259042
1631204152276,37270,261061,259062
1631204152286,37277,261070,259029
1631204152296,37308,261100,259070
1631204152306,37319,261076,259057
1631204152316,37332,261080,259101
1631204152326,37335,261074,259087
1631204152336,37328,261025,259091
1631204152346,37308,261040,259071
1631204152356,37297,261011,259067
1631204152366,37266,260997,259065
1631204152376,37233,260960,259044
1631204152386,37202,260905,259042
1631204152396,37171,260869,259008
1631204152406,37131,260840,258995
1631204152416,37104,260818,258982
1631204152426,37079,260803,258959
1631204152436,37058,260774,258941
1631204152446,37026,260740,258953
1631204152456,36994,260761,258950
1631204152466,36971,260710,258938
1631204152476,36950,260686,258931
1631204152486,36927,260666,258937
1631204152496,36905,260649,258925
1631204152506,36893,260629,258936
1631204152516,36864,260648,258916
1631204152526,36847,260583,258891
1631204152536,36817,260567,258893
1631204152546,36817,260568,258828
1631204152556,36798,260602,258891
1631204152566,36786,260571,258878
1631204152576,36783,260556,258870
1631204152586,36779,260565,258886
1631204152596,36776,260582,258870
1631204152606,36766,260578,258843
1631204152616,36766,260528,258867
1631204152626,36760,260542,258856
1631204152636,36751,260530,258855
1631204152646,36742,260567,258875
1631204152656,36737,260524,258879
1631204152666,36736,260517,258837
1631204152676,36743,260524,258865
1631204152686,36719,260502,258870
1631204152696,36727,260477,258904
1631204152706,36721,260483,258813
1631204152716,36724,260527,258821
1631204152726,36713,260553,258859
1631204152736,36719,260495,258825
1631204152746,36727,260532,258845
1631204152756,36727,260564,258844
1631204152766,36732,260554,258872
1631204152776,36738,260535,258879
1631204152786,36746,260528,258848
1631204152796,36761,260556,258854
1631204152806,36753,260571,258857
1631204152816,36770,260562,258886
1631204152826,36775,260571,258872
1631204152836,36790,260599,258877
1631204152846,36794,260601,258893
1631204152856,36801,260572,258880
1631204152866,36824,260621,258882
1631204152876,36830,260634,258876
1631204152886,36839,260610,258907
1631204152896,36845,260644,258911
1631204152906,36862,260635,258883
1631204152916,36875,260713,258921
1631204152926,36891,260669,258919
1631204152936,36909,260663,258935
1631204152946,36922,260712,258918
1631204152956,36929,260705,258946
1631204152966,36945,260728,258938
1631204152976,36959,260711,258937
1631204152986,36975,260758,258939
1631204152996,36995,260744,258949
1631204153006,37004,260755,258971
1631204153016,37020,260795,258977
1631204153026,37030,260808,258988
1631204153036,37043,260803,258975
1631204153046,37060,260813,259021
1631204153056,37073,260810,259007
1631204153066,37089,260824,259017
1631204153076,37106,260832,259036
1631204153086,37120,260862,259037
1631204153096,37143,260882,259043
1631204153106,37152,260918,259028
1631204153116,37181,260919,259042
1631204153126,37192,260956,259089
1631204153136,37214,260945,259061
1631204153146,37224,260958,259051
1631204153156,37250,260998,259096
1631204153166,37266,261014,259099
1631204153176,37282,261014,259125
1631204153186,37299,261003,259075
1631204153196,37323,261040,259138
1631204153206,37322,261037,259102
1631204153216,37325,261019,259136
1631204153226,37326,260985,259126
1631204153236,37306,260989,259082
1631204153246,37293,260919,259095
1631204153256,37257,260921,259080
1631204153266,37230,260874,259033
1631204153276,37197,260843,259062
1631204153286,37163,260815,259041
1631204153296,37126,260758,259005
1631204153306,37092,260753,259005
1631204153316,37067,260723,258979
1631204153326,37030,260687,258980
1631204153336,37009,260649,258968
1631204153346,36976,260664,258947
1631204153356,36953,260643,258996
1631204153366,36928,260623,258967
1631204153376,36906,260586,258950
1631204153386,36886,260601,258929
1631204153396,36858,260588,258925
1631204153406,36841,260532,258916
1631204153416,36823,260522,258914
1631204153426,36805,260506,258931
1631204153436,36789,260491,258911
1631204153446,36784,260535,258934
1631204153456,36763,260511,258877
1631204153466,36762,260497,258863
1631204153476,36754,260508,258882
1631204153486,36745,260470,258853
1631204153496,36747,260495,258884
1631204153506,36737,260498,258897
1631204153516,36728,260481,258867
1631204153526,36728,260478,258839
1631204153536,36707,260453,258883
1631204153546,36712,260439,258851
1631204153556,36703,260449,258871
1631204153566,36699,260438,258859
1631204153576,36705,260469,258863
1631204153586,36690,260460,258854
1631204153596,36689,260442,258858
1631204153606,36688,260427,258858
1631204153616,36682,260419,258851
1631204153626,36691,260437,258847
1631204153636,36695,260438,258851
1631204153646,36706,260435,258842
1631204153656,36703,260449,258856
1631204153666,36711,260463,258836
1631204153676,36722,260481,258875
1631204153686,36722,260444,258876
1631204153696,36734,260498,258860
1631204153706,36741,260474,258867
1631204153716,36751,260501,258875
1631204153726,36762,260488,258860
1631204153736,36769,260512,258879
1631204153746,36778,260543,258853
1631204153756,36788,260541,258875
1631204153766,36802,260528,258879
1631204153776,36811,260560,258880
1631204153786,36822,260600,258884
1631204153796,36834,260540,258885
1631204153806,36858,260603,258914
1631204153816,36873,260595,258908
1631204153826,36874,260578,258940
1631204153836,36891,260653,258910
1631204153846,36899,260615,258926
1631204153856,36919,260652,258931
1631204153866,36935,260621,258971
1631204153876,36954,260671,258967
1631204153886,36966,260713,258933
1631204153896,36981,260728,258979
1631204153906,37002,260700,258943
1631204153916,37019,260717,258968
1631204153926,37036,260719,258966
1631204153936,37042,260766,258991
1631204153946,37054,260791,258980
1631204153956,37077,260772,258968
1631204153966,37099,260795,258998
1631204153976,37105,260788,258975
1631204153986,37118,260841,259016
1631204153996,37142,260835,259008
1631204154006,37162,260809,259009
1631204154016,37172,260883,259068
1631204154026,37193,260889,259046
1631204154036,37213,260911,259048
1631204154046,37229,260928,259064
1631204154056,37253,260939,259096
1631204154066,37273,260947,259115
1631204154076,37293,261008,259094
1631204154086,37307,260983,259114
1631204154096,37329,260989,259135
1631204154106,37340,261030,259139
1631204154116,37347,261030,259106
1631204154126,37353,260972,259113
1631204154136,37336,260974,259108
1631204154146,37324,260998,259109
1631204154156,37303,260907,259091
1631204154166,37274,260925,259085
1631204154176,37235,260896,259075
1631204154186,37198,260847,259074
1631204154196,37172,260795,259026
1631204154206,37143,260737,259054
1631204154216,37106,260742,259037
1631204154226,37083,260714,258996
1631204154236,37062,260680,258991
1631204154246,37029,260673,259005
1631204154256,37012,260611,258992
1631204154266,36990,260613,259000
1631204154276,36966,260646,258977
1631204154286,36958,260621,258970
1631204154296,36924,260641,258979
1631204154306,36906,260596,258955
1631204154316,36889,260596,258958
1631204154326,36881,260598,258959
1631204154336,36862,260558,258946
1631204154346,36856,260582,258972
1631204154356,36851,260565,258923
1631204154366,36843,260532,258935
1631204154376,36844,260536,258940
1631204154386,36836,260584,258968
1631204154396,36838,260539,258959
1631204154406,36829,260522,258936
1631204154416,36824,260512,258963
1631204154426,36814,260508,258965
1631204154436,36814,260521,258944
1631204154446,36808,260493,258919
1631204154456,36804,260530,258935
1631204154466,36800,260508,258937
1631204154476,36792,260505,258925
1631204154486,36804,260488,258933
1631204154496,36794,260499,258917
1631204154506,36787,260511,258940
1631204154516,36788,260526,258939
1631204154526,36788,260506,258943
1631204154536,36794,260524,258939
1631204154546,36796,260530,258931
1631204154556,36803,260537,258923
1631204154566,36807,260531,258943
1631204154576,36816,260526,258928
1631204154586,36818,260527,258928
1631204154596,36825,260530,258923
1631204154606,36832,260560,258915
1631204154616,36844,260574,258938
1631204154626,36848,260561,258900
1631204154636,36852,260586,258950
1631204154646,36872,260561,258978
1631204154656,36886,260629,258946
1631204154666,36895,260595,258949
1631204154676,36907,260654,258951
1631204154686,36913,260604,258972
1631204154696,36934,260634,258972
1631204154706,36942,260667,258986
1631204154716,36952,260686,259015
1631204154726,36973,260687,258965
1631204154736,36985,260720,259000
1631204154746,37000,260677,258983
1631204154756,37012,260726,259030
1631204154766,37018,260722,259012
1631204154776,37041,260748,259012
1631204154786,37057,260723,259023
1631204154796,37060,260769,259059
1631204154806,37080,260782,259049
1631204154816,37107,260798,259061
1631204154826,37112,260826,259055
1631204154836,37131,260835,259057
1631204154846,37148,260836,259061
1631204154856,37164,260876,259097
1631204154866,37177,260852,259096
1631204154876,37200,260922,259077
1631204154886,37211,260941,259092
1631204154896,37229,260905,259105
1631204154906,37248,260920,259129
1631204154916,37259,260955,259133
1631204154926,37282,260972,259160
1631204154936,37299,261011,259137
1631204154946,37317,261005,259154
1631204154956,37339,261006,259171
1631204154966,37343,261029,259162
1631204154976,37381,261043,259170
1631204154986,37389,261062,259191
1631204154996,37396,261058,259193
1631204155006,37395,261033,259200
1631204155016,37382,261008,259186
1631204155026,37357,260998,259192
1631204155036,37333,260920,259187
1631204155046,37306,260946,259191
1631204155056,37274,260883,259161
1631204155066,37250,260866,259150
1631204155076,37213,260882,259132
1631204155086,37183,260842,259119
1631204155096,37161,260822,259113
1631204155106,37134,260800,259062
1631204155116,37112,260722,259072
1631204155126,37073,260769,259120
1631204155136,37055,260704,259075
1631204155146,37046,260710,259069
1631204155156,37017,260724,259059
1631204155166,37006,260685,259068
1631204155176,36983,260669,259060
1631204155186,36974,260694,259053
1631204155196,36952,260647,259052
1631204155206,36942,260684,259031
1631204155216,36927,260621,259045
1631204155226,36922,260656,259037
1631204155236,36919,260635,259065
1631204155246,36916,260637,259043
1631204155256,36918,260670,259027
1631204155266,36911,260667,259027
1631204155276,36916,260624,259038
1631204155286,36898,260663,259021
1631204155296,36903,260591,259019
1631204155306,36888,260611,259003
1631204155316,36892,260632,259037
1631204155326,36875,260649,259028
1631204155336,36872,260607,259017
1631204155346,36868,260578,258987
1631204155356,36867,260603,259002
1631204155366,36870,260582,258998
1631204155376,36864,260607,258973
1631204155386,36867,260588,259000
1631204155396,36865,260637,259007
1631204155406,36868,260601,259019
1631204155416,36870,260625,259015
1631204155426,36876,260622,259024
1631204155436,36893,260644,259027
1631204155446,36886,260656,258997
1631204155456,36898,260657,259024
1631204155466,36915,260647,259028
1631204155476,36915,260699,259018
1631204155486,36930,260649,259070
1631204155496,36936,260686,259028
1631204155506,36945,260701,259051
1631204155516,36959,260723,259010
1631204155526,36973,260704,259052
1631204155536,36985,260692,259050
1631204155546,36990,260718,259046
1631204155556,36993,260737,259042
1631204155566,37014,260721,259088
1631204155576,37023,260798,259062
1631204155586,37038,260761,259086
1631204155596,37055,260789,259087
1631204155606,37068,260778,259082
1631204155616,37088,260827,259114
1631204155626,37088,260809,259107
1631204155636,37109,260860,259090
1631204155646,37122,260840,259127
1631204155656,37138,260857,259114
1631204155666,37150,260848,259145
1631204155676,37169,260881,259124
1631204155686,37188,260939,259150
1631204155696,37202,260924,259152
1631204155706,37214,260937,259159
1631204155716,37232,260947,259175
1631204155726,37249,260954,259175
1631204155736,37263,260939,259175
1631204155746,37283,260975,259203
1631204155756,37299,261003,259216
1631204155766,37306,261027,259181
1631204155776,37329,261010,259192
1631204155786,37346,261056,259226
1631204155796,37367,261063,259210
1631204155806,37379,261097,259253
1631204155816,37399,261107,259243
1631204155826,37418,261142,259226
1631204155836,37428,261172,259244
1631204155846,37462,261211,259259
1631204155856,37474,261212,259287
1631204155866,37496,261151,259254
1631204155876,37506,261193,259270
1631204155886,37511,261187,259296
1631204155896,37517,261171,259274
1631204155906,37501,261152,259269
1631204155916,37485,261172,259288
1631204155926,37465,261121,259259
1631204155936,37428,261044,259248
1631204155946,37392,261014,259242
1631204155956,37358,261023,259269
1631204155966,37319,260989,259203
1631204155976,37278,260920,259177
1631204155986,37243,260932,259216
1631204155996,37217,260898,259169
1631204156006,37184,260881,259159
1631204156016,37146,260843,259139
1631204156026,37112,260828,259140
1631204156036,37096,260816,259129
1631204156046,37068,260781,259080
1631204156056,37035,260790,259109
1631204156066,37015,260762,259136
1631204156076,36994,260746,259099
1631204156086,36974,260716,259082
1631204156096,36951,260739,259083
1631204156106,36935,260681,259086
1631204156116,36917,260662,259093
1631204156126,36908,260671,259079
1631204156136,36896,260677,259068
1631204156146,36887,260671,259056
1631204156156,36882,260682,259070
1631204156166,36876,260652,259045
1631204156176,36867,260658,259018
1631204156186,36859,260661,259029
1631204156196,36859,260607,259031
1631204156206,36842,260615,259023
1631204156216,36828,260640,259018
1631204156226,36828,260618,259036
1631204156236,36824,260600,259062
1631204156246,36825,260591,259018
1631204156256,36814,260584,259027
1631204156266,36807,260568,259031
1631204156276,36795,260611,259029
1631204156286,36805,260616,259017
1631204156296,36817,260634,259014
1631204156306,36809,260614,259011
1631204156316,36815,260637,259016
1631204156326,36821,260623,259029
1631204156336,36827,260646,259010
1631204156346,36829,260608,259002
1631204156356,36827,260647,258968
1631204156366,36827,260618,259048
1631204156376,36833,260638,259011
1631204156386,36846,260673,259014
1631204156396,36855,260688,259013
1631204156406,36860,260692,259020
1631204156416,36878,260715,259022
1631204156426,36886,260680,259015
1631204156436,36898,260709,259045
1631204156446,36899,260733,259041
1631204156456,36917,260709,259050
1631204156466,36923,260761,259023
1631204156476,36933,260746,259027
1631204156486,36946,260767,259057
1631204156496,36963,260775,259051
1631204156506,36975,260756,259074
1631204156516,36996,260831,259074
1631204156526,37003,260823,259106
1631204156536,37011,260842,259122
1631204156546,37027,260816,259108
1631204156556,37043,260868,259105
1631204156566,37045,260866,259121
1631204156576,37066,260858,259088
1631204156586,37080,260877,259121
1631204156596,37092,260921,259113
1631204156606,37110,260909,259136
1631204156616,37124,260925,259127
1631204156626,37138,260926,259151
1631204156636,37151,260922,259163
1631204156646,37175,260961,259181
1631204156656,37185,260958,259173
1631204156666,37211,261005,259203
1631204156676,37222,260987,259202
1631204156686,37232,261019,259160
1631204156696,37256,261038,259190
1631204156706,37268,261076,259202
1631204156716,37287,261065,259199
1631204156726,37313,261096,259218
1631204156736,37319,261070,259251
1631204156746,37334,261096,259229
1631204156756,37358,261138,259269
1631204156766,37374,261081,259249
1631204156776,37375,261106,259251
1631204156786,37380,261128,259251
1631204156796,37374,261091,259223
1631204156806,37368,261087,259237
1631204156816,37338,261040,259229
1631204156826,37296,261067,259211
1631204156836,37257,260988,259220
1631204156846,37226,260950,259169
1631204156856,37191,260931,259180
1631204156866,37157,260847,259152
1631204156876,37124,260885,259143
1631204156886,37092,260854,259117
1631204156896,37078,260821,259113
1631204156906,37040,260760,259105
1631204156916,37000,260739,259088
1631204156926,36970,260727,259083
1631204156936,36956,260764,259064
1631204156946,36933,260706,259042
1631204156956,36907,260687,259033
1631204156966,36889,260704,259028
1631204156976,36867,260664,259022
1631204156986,36849,260610,258993
1631204156996,36825,260639,259011
1631204157006,36816,260635,258981
1631204157016,36795,260607,259007
1631204157026,36792,260615,258986
1631204157036,36784,260619,258970
1631204157046,36773,260609,258963
1631204157056,36767,260598,258957
1631204157066,36763,260635,258937
1631204157076,36752,260631,258958
1631204157086,36747,260587,258963
1631204157096,36749,260601,258941
1631204157106,36734,260558,258948
1631204157116,36733,260571,258981
1631204157126,36735,260607,258944
1631204157136,36728,260548,258965
1631204157146,36728,260604,258936
1631204157156,36727,260555,258969
1631204157166,36721,260601,258958
1631204157176,36719,260567,258982
1631204157186,36716,260545,258978
1631204157196,36718,260544,258957
1631204157206,36725,260525,258974
1631204157216,36727,260554,258957
1631204157226,36736,260551,258991
1631204157236,36730,260577,258975
1631204157246,36750,260592,258976
1631204157256,36750,260587,258978
1631204157266,36760,260637,258999
1631204157276,36764,260605,258989
1631204157286,36770,260641,258995
1631204157296,36783,260628,258994
1631204157306,36792,260626,258997
1631204157316,36814,260667,258992
1631204157326,36821,260649,258993
1631204157336,36818,260638,258974
1631204157346,36832,260677,258998
1631204157356,36846,260706,258997
1631204157366,36852,260709,259002
1631204157376,36872,260706,258979
1631204157386,36880,260717,258990
1631204157396,36884,260707,258999
1631204157406,36913,260744,259010
1631204157416,36931,260792,259009
1631204157426,36935,260805,259042
1631204157436,36950,260791,259027
1631204157446,36962,260808,259061
1631204157456,36982,260817,259028
1631204157466,37010,260870,259087
1631204157476,37027,260836,259072
1631204157486,37041,260862,259112
1631204157496,37058,260892,259124
1631204157506,37076,260898,259112
1631204157516,37094,260920,259096
1631204157526,37113,260920,259159
1631204157536,37130,260931,259173
1631204157546,37148,260962,259167
1631204157556,37173,260988,259163
1631204157566,37189,260985,259187
1631204157576,37207,260940,259197
1631204157586,37225,261014,259223
1631204157596,37242,261009,259261
1631204157606,37262,261015,259244
1631204157616,37278,261043,259226
1631204157626,37296,261027,259247
1631204157636,37310,261060,259241
1631204157646,37324,261059,259274
1631204157656,37328,261055,259253
1631204157666,37307,261031,259265
1631204157676,37292,261039,259258
1631204157686,37260,261013,259264
1631204157696,37232,260934,259279
1631204157706,37206,260916,259218
1631204157716,37170,260861,259254
1631204157726,37153,260851,259212
1631204157736,37122,260837,259211
1631204157746,37099,260833,259180
1631204157756,37066,260782,259190
1631204157766,37044,260804,259168
1631204157776,37027,260755,259177
1631204157786,37012,260755,259205
1631204157796,36996,260784,259198
1631204157806,36984,260731,259190
1631204157816,36972,260740,259195
1631204157826,36947,260727,259184
1631204157836,36936,260716,259160
1631204157846,36932,260703,259183
1631204157856,36929,260728,259162
1631204157866,36924,260703,259164
1631204157876,36935,260714,259149
1631204157886,36930,260670,259153
1631204157896,36933,260691,259154
1631204157906,36916,260710,259147
1631204157916,36918,260676,259158
1631204157926,36917,260683,259159
1631204157936,36907,260677,259153
1631204157946,36903,260675,259122
1631204157956,36901,260644,259113
1631204157966,36899,260682,259110
1631204157976,36887,260676,259139
1631204157986,36886,260679,259128
1631204157996,36890,260704,259134
1631204158006,36888,260666,259099
1631204158016,36881,260687,259138
1631204158026,36892,260681,259102
1631204158036,36896,260641,259100
1631204158046,36897,260690,259081
1631204158056,36902,260717,259123
1631204158066,36911,260736,259107
1631204158076,36911,260734,259122
1631204158086,36919,260756,259118
1631204158096,36932,260759,259136
1631204158106,36939,260743,259121
1631204158116,36955,260719,259129
1631204158126,36960,260754,259113
1631204158136,36971,260818,259087
1631204158146,36989,260779,259133
1631204158156,36993,260820,259091
1631204158166,37013,260841,259125
1631204158176,37027,260836,259127
1631204158186,37052,260857,259114
1631204158196,37054,260884,259117
1631204158206,37073,260895,259151
1631204158216,37083,260897,259139
1631204158226,37096,260899,259154
1631204158236,37109,260934,259139
1631204158246,37135,260953,259162
1631204158256,37146,260983,259145
1631204158266,37156,260976,259156
1631204158276,37176,260996,259159
1631204158286,37208,260994,259171
1631204158296,37215,261012,259173
1631204158306,37225,261047,259229
1631204158316,37245,261043,259208
1631204158326,37256,261045,259246
1631204158336,37275,261069,259216
1631204158346,37308,261089,259219
1631204158356,37328,261108,259252
1631204158366,37331,261165,259218
1631204158376,37358,261145,259246
1631204158386,37374,261161,259245
1631204158396,37391,261189,259286
1631204158406,37413,261252,259289
1631204158416,37436,261223,259297
1631204158426,37461,261215,259310
1631204158436,37479,261269,259308
1631204158446,37497,261300,259324
1631204158456,37526,261277,259347
1631204158466,37540,261332,259332
1631204158476,37554,261316,259349
1631204158486,37562,261330,259334
1631204158496,37563,261297,259368
1631204158506,37543,261306,259330
1631204158516,37524,261286,259325
1631204158526,37505,261209,259332
1631204158536,37466,261191,259317
1631204158546,37442,261173,259311
1631204158556,37399,261104,259290
1631204158566,37362,261111,259279
1631204158576,37337,261114,259251
1631204158586,37303,261044,259263
1631204158596,37271,261005,259231
1631204158606,37241,260971,259239
1631204158616,37216,260977,259213
1631204158626,37199,261004,259178
1631204158636,37165,260934,259190
1631204158646,37145,260887,259179
1631204158656,37127,260967,259207
1631204158666,37105,260901,259159
1631204158676,37089,260913,259165
1631204158686,37071,260905,259143
1631204158696,37054,260859,259147
1631204158706,37031,260866,259155
1631204158716,37028,260839,259146
1631204158726,37023,260874,259152
1631204158736,37020,260825,259177
1631204158746,37018,260864,259159
1631204158756,37010,260885,259145
1631204158766,37009,260854,259161
1631204158776,37008,260880,259152
1631204158786,36998,260833,259136
1631204158796,36997,260809,259133
1631204158806,36997,260837,259142
1631204158816,36988,260815,259174
1631204158826,36981,260865,259132
1631204158836,36975,260831,259130
1631204158846,36970,260803,259137
1631204158856,36975,260811,259113
1631204158866,36981,260861,259132
1631204158876,36978,260817,259112
1631204158886,36979,260834,259146
1631204158896,36981,260829,259145
1631204158906,36992,260856,259119
1631204158916,36998,260834,259121
1631204158926,37009,260915,259130
1631204158936,37009,260897,259141
1631204158946,37020,260871,259139
1631204158956,37031,260882,259136
1631204158966,37042,260913,259133
1631204158976,37049,260883,259143
1631204158986,37059,260977,259166
1631204158996,37088,260963,259170
1631204159006,37096,260945,259183
1631204159016,37108,260969,259174
1631204159026,37120,260943,259189
1631204159036,37140,261004,259210
1631204159046,37149,261034,259214
1631204159056,37162,261038,259192
1631204159066,37182,261054,259216
1631204159076,37197,261029,259240
1631204159086,37223,261054,259243
1631204159096,37228,261120,259274
1631204159106,37244,261071,259278
1631204159116,37262,261134,259261
1631204159126,37273,261143,259246
1631204159136,37286,261148,259276
1631204159146,37309,261165,259293
1631204159156,37332,261189,259304
1631204159166,37338,261214,259302
1631204159176,37358,261224,259284
1631204159186,37369,261229,259321
1631204159196,37391,261247,259311
1631204159206,37407,261276,259309
1631204159216,37429,261332,259343
1631204159226,37446,261277,259309
1631204159236,37469,261298,259366
1631204159246,37496,261320,259385
1631204159256,37514,261309,259389
1631204159266,37536,261349,259373
1631204159276,37554,261423,259392
1631204159286,37584,261410,259424
1631204159296,37595,261427,259409
1631204159306,37617,261457,259407
1631204159316,37642,261451,259465
1631204159326,37657,261441,259422
1631204159336,37661,261476,259456
1631204159346,37668,261443,259448
1631204159356,37661,261462,259434
1631204159366,37638,261387,259448
1631204159376,37615,261394,259436
1631204159386,37587,261368,259419
1631204159396,37549,261307,259431
1631204159406,37514,261252,259362
1631204159416,37483,261260,259382
1631204159426,37438,261178,259355
1631204159436,37405,261161,259344
1631204159446,37370,261141,259342
1631204159456,37336,261128,259348
1631204159466,37306,261123,259301
1631204159476,37277,261072,259276
1631204159486,37262,261053,259275
1631204159496,37229,261070,259274
1631204159506,37218,261038,259278
1631204159516,37187,260996,259277
1631204159526,37166,261008,259291
1631204159536,37136,261008,259247
1631204159546,37120,260924,259244
1631204159556,37096,260946,259256
1631204159566,37090,260956,259231
1631204159576,37068,260916,259199
1631204159586,37064,260931,259233
1631204159596,37062,260956,259241
1631204159606,37053,260967,259247
1631204159616,37055,260936,259249
1631204159626,37055,260958,259253
1631204159636,37047,260929,259248
1631204159646,37048,260913,259219
1631204159656,37037,260945,259254
1631204159666,37034,260885,259266
1631204159676,37025,260920,259236
1631204159686,37012,260921,259253
1631204159696,37031,260926,259216
1631204159706,37023,260915,259230
1631204159716,37021,260875,259258
1631204159726,37014,260907,259236
1631204159736,37022,260907,259259
1631204159746,37026,260896,259234
1631204159756,37030,260919,259226
1631204159766,37039,260920,259245
1631204159776,37039,260949,259255
1631204159786,37052,260958,259212
1631204159796,37054,260939,259237
1631204159806,37069,260967,259276
1631204159816,37075,260925,259266
1631204159826,37094,261006,259254
1631204159836,37097,260979,259252
1631204159846,37109,261019,259259
1631204159856,37125,261015,259269
1631204159866,37136,260993,259260
1631204159876,37151,261020,259279
1631204159886,37165,261032,259254
1631204159896,37176,260998,259324
1631204159906,37190,261033,259300
1631204159916,37206,261019,259307
1631204159926,37219,261054,259318
1631204159936,37245,261098,259321
1631204159946,37247,261105,259320
1631204159956,37263,261137,259375
1631204159966,37284,261140,259348
1631204159976,37304,261112,259357
1631204159986,37324,261141,259337
1631204159996,37342,261178,259388
1631204160006,37355,261181,259393
1631204160016,37374,261194,259394
1631204160026,37394,261177,259403
1631204160036,37409,261242,259375
1631204160046,37425,261221,259421
1631204160056,37448,261241,259403
1631204160066,37468,261239,259404
1631204160076,37487,261285,259436
1631204160086,37494,261288,259420
1631204160096,37530,261320,259464
1631204160106,37543,261365,259507
1631204160116,37569,261334,259506
1631204160126,37594,261317,259518
1631204160136,37620,261392,259491
1631204160146,37639,261415,259552
1631204160156,37663,261399,259549
1631204160166,37678,261457,259538
1631204160176,37699,261440,259583
1631204160186,37717,261435,259570
1631204160196,37726,261431,259586
1631204160206,37731,261427,259603
1631204160216,37732,261435,259583
1631204160226,37707,261370,259605
1631204160236,37689,261315,259583
1631204160246,37656,261276,259590
1631204160256,37623,261258,259571
1631204160266,37579,261206,259571
1631204160276,37545,261187,259521
1631204160286,37510,261128,259525
1631204160296,37475,261132,259506
1631204160306,37443,261098,259523
1631204160316,37414,261076,259522
1631204160326,37376,261084,259480
1631204160336,37359,261016,259455
1631204160346,37339,260998,259433
1631204160356,37305,260961,259414
1631204160366,37280,260941,259449
1631204160376,37262,260913,259431
1631204160386,37242,260934,259436
1631204160396,37219,260905,259413
1631204160406,37202,260920,259397
1631204160416,37184,260927,259407
1631204160426,37169,260876,259390
1631204160436,37162,260890,259405
1631204160446,37154,260869,259367
1631204160456,37155,260843,259396
1631204160466,37151,260832,259401
1631204160476,37150,260912,259371
1631204160486,37129,260858,259410
1631204160496,37128,260847,259363
1631204160506,37132,260858,259331
1631204160516,37122,260857,259371
1631204160526,37120,260852,259358
1631204160536,37112,260843,259345
1631204160546,37101,260873,259355
1631204160556,37100,260824,259347
1631204160566,37097,260824,259336
1631204160576,37094,260843,259343
1631204160586,37096,260856,259348
1631204160596,37091,260821,259340
1631204160606,37089,260811,259330
1631204160616,37093,260870,259339
1631204160626,37101,260819,259342
1631204160636,37092,260849,259364
1631204160646,37110,260849,259339
1631204160656,37106,260852,259344
1631204160666,37125,260886,259356
1631204160676,37131,260877,259343
1631204160686,37127,260859,259355
1631204160696,37149,260882,259356
1631204160706,37153,260889,259345
1631204160716,37170,260884,259337
1631204160726,37174,260901,259356
1631204160736,37190,260902,259359
1631204160746,37209,260937,259345
1631204160756,37217,260961,259359
1631204160766,37228,260959,259378
1631204160776,37241,260969,259388
1631204160786,37258,260977,259388
1631204160796,37268,260983,259372
1631204160806,37285,261034,259390
1631204160816,37309,261020,259419
1631204160826,37310,261042,259416
1631204160836,37330,261051,259423
1631204160846,37342,261085,259413
1631204160856,37355,261112,259408
1631204160866,37377,261046,259410
1631204160876,37391,261128,259418
1631204160886,37408,261092,259422
1631204160896,37422,261121,259445
1631204160906,37443,261121,259453
1631204160916,37456,261168,259452
1631204160926,37476,261114,259454
1631204160936,37493,261141,259468
1631204160946,37510,261155,259493
1631204160956,37523,261208,259488
1631204160966,37549,261209,259483
1631204160976,37560,261288,259489
1631204160986,37593,261270,259534
1631204160996,37608,261298,259496
1631204161006,37622,261324,259501
1631204161016,37640,261324,259520
1631204161026,37663,261343,259530
1631204161036,37677,261340,259523
1631204161046,37674,261342,259522
1631204161056,37673,261310,259510
1631204161066,37648,261238,259486
1631204161076,37630,261286,259486
1631204161086,37601,261209,259479
1631204161096,37568,261192,259473
1631204161106,37529,261154,259447
1631204161116,37489,261125,259426
1631204161126,37462,261080,259425
1631204161136,37436,261080,259410
1631204161146,37394,261014,259398
1631204161156,37373,261027,259408
1631204161166,37336,260968,259381
1631204161176,37314,260998,259383
1631204161186,37291,260945,259392
1631204161196,37268,260961,259348
1631204161206,37243,260949,259334
1631204161216,37231,260941,259353
1631204161226,37211,260876,259324
1631204161236,37199,260900,259316
1631204161246,37177,260855,259311
1631204161256,37160,260874,259275
1631204161266,37153,260865,259280
1631204161276,37144,260915,259294
1631204161286,37148,260870,259284
1631204161296,37139,260897,259280
1631204161306,37145,260900,259308
1631204161316,37142,260895,259287
1631204161326,37138,260870,259289
1631204161336,37129,260837,259277
1631204161346,37126,260834,259295
1631204161356,37130,260880,259305
1631204161366,37125,260891,259300
1631204161376,37122,260853,259275
1631204161386,37119,260866,259282
1631204161396,37110,260826,259281
1631204161406,37113,260882,259249
1631204161416,37112,260823,259291
1631204161426,37115,260847,259259
1631204161436,37123,260863,259249
1631204161446,37113,260862,259268
1631204161456,37125,260880,259227
1631204161466,37131,260854,259228
1631204161476,37134,260839,259277
1631204161486,37152,260880,259254
1631204161496,37153,260886,259285
1631204161506,37168,260916,259290
1631204161516,37180,260940,259297
1631204161526,37190,260951,259247
1631204161536,37201,260960,259297
1631204161546,37209,260967,259285
1631204161556,37218,260955,259260
1631204161566,37238,260969,259290
1631204161576,37244,260964,259297
1631204161586,37258,261016,259317
1631204161596,37275,260994,259301
1631204161606,37296,261007,259307
1631204161616,37296,261040,259289
1631204161626,37310,261040,259312
1631204161636,37325,261070,259326
1631204161646,37334,261064,259337
1631204161656,37355,261078,259307
1631204161666,37372,261092,259318
1631204161676,37384,261113,259326
1631204161686,37406,261133,259374
1631204161696,37419,261135,259347
1631204161706,37439,261147,259339
1631204161716,37454,261231,259390
1631204161726,37473,261221,259371
1631204161736,37491,261237,259416
1631204161746,37516,261246,259376
1631204161756,37524,261249,259387
1631204161766,37549,261313,259398
1631204161776,37565,261285,259416
1631204161786,37586,261320,259432
1631204161796,37612,261309,259430
1631204161806,37631,261387,259456
1631204161816,37640,261375,259463
1631204161826,37660,261434,259426
1631204161836,37689,261419,259451
1631204161846,37714,261426,259509
1631204161856,37731,261463,259445
1631204161866,37754,261459,259499
1631204161876,37758,261521,259484
1631204161886,37787,261465,259488
1631204161896,37786,261460,259489
1631204161906,37781,261470,259483
1631204161916,37765,261433,259502
1631204161926,37744,261412,259456
1631204161936,37712,261403,259448
1631204161946,37689,261307,259445
1631204161956,37650,261284,259447
1631204161966,37617,261260,259426
1631204161976,37570,261251,259376
1631204161986,37541,261227,259378
1631204161996,37503,261183,259384
1631204162006,37462,261116,259350
1631204162016,37440,261165,259328
1631204162026,37418,261117,259310
1631204162036,37386,261101,259337
1631204162046,37347,261055,259302
1631204162056,37326,261045,259312
1631204162066,37302,261076,259288
1631204162076,37283,261001,259281
1631204162086,37253,261025,259294
1631204162096,37238,260994,259232
1631204162106,37229,260985,259263
1631204162116,37201,260999,259219
1631204162126,37199,260963,259237
1631204162136,37191,260970,259219
1631204162146,37181,260990,259243
1631204162156,37179,260940,259240
1631204162166,37177,260977,259220
1631204162176,37169,260982,259243
1631204162186,37165,260934,259225
1631204162196,37153,260955,259219
1631204162206,37150,260990,259233
1631204162216,37147,260945,259213
1631204162226,37143,260927,259209
1631204162236,37141,261000,259191
1631204162246,37137,260933,259201
1631204162256,37139,260931,259201
1631204162266,37139,260981,259225
1631204162276,37134,260938,259231
1631204162286,37146,260990,259198
1631204162296,37144,260967,259204
1631204162306,37136,260965,259213
1631204162316,37153,261001,259181
1631204162326,37156,261042,259191
1631204162336,37155,260969,259216
1631204162346,37172,260981,259193
1631204162356,37172,261001,259170
1631204162366,37185,261010,259207
1631204162376,37198,261080,259235
1631204162386,37204,261033,259241
1631204162396,37212,261070,259243
1631204162406,37233,261071,259244
1631204162416,37235,261090,259262
1631204162426,37254,261111,259250
1631204162436,37257,261147,259242
1631204162446,37275,261145,259247
1631204162456,37288,261142,259250
1631204162466,37297,261162,259249
1631204162476,37316,261193,259246
1631204162486,37320,261174,259244
1631204162496,37345,261208,259272
1631204162506,37364,261233,259260
1631204162516,37375,261223,259234
1631204162526,37400,261248,259300
1631204162536,37407,261262,259303
1631204162546,37422,261283,259310
1631204162556,37440,261313,259331
1631204162566,37461,261281,259316
1631204162576,37471,261300,259287
1631204162586,37498,261298,259310
1631204162596,37519,261359,259360
1631204162606,37515,261365,259336
1631204162616,37550,261367,259327
1631204162626,37563,261416,259343
1631204162636,37582,261415,259363
1631204162646,37603,261435,259386
1631204162656,37630,261463,259394
1631204162666,37639,261473,259351
1631204162676,37659,261529,259385
1631204162686,37682,261493,259411
1631204162696,37706,261545,259405
1631204162706,37729,261565,259441
1631204162716,37749,261542,259440
1631204162726,37769,261610,259456
1631204162736,37796,261612,259436
1631204162746,37803,261656,259461
1631204162756,37828,261559,259444
1631204162766,37819,261651,259455
1631204162776,37813,261590,259451
1631204162786,37805,261581,259435
1631204162796,37775,261555,259452
1631204162806,37750,261539,259452
1631204162816,37711,261486,259364
1631204162826,37675,261391,259419
1631204162836,37646,261426,259367
1631204162846,37611,261358,259357
1631204162856,37574,261317,259351
1631204162866,37541,261319,259371
1631204162876,37508,261326,259343
1631204162886,37481,261284,259351
1631204162896,37459,261217,259339
1631204162906,37428,261232,259321
1631204162916,37394,261216,259288
1631204162926,37368,261233,259272
1631204162936,37350,261224,259263
1631204162946,37323,261173,259255
1631204162956,37309,261165,259258
1631204162966,37282,261107,259274
1631204162976,37273,261127,259240
1631204162986,37250,261096,259227
1631204162996,37250,261157,259247
1631204163006,37244,261105,259245
1631204163016,37237,261116,259238
1631204163026,37230,261101,259233
1631204163036,37226,261117,259210
1631204163046,37223,261138,259235
1631204163056,37213,261123,259219
1631204163066,37210,261132,259242
1631204163076,37215,261107,259243
1631204163086,37203,261104,259217
1631204163096,37201,261102,259247
1631204163106,37203,261124,259229
1631204163116,37197,261106,259235
1631204163126,37183,261081,259203
1631204163136,37185,261102,259215
1631204163146,37180,261133,259227
1631204163156,37185,261104,259206
1631204163166,37189,261095,259230
1631204163176,37195,261110,259230
1631204163186,37192,261112,259219
1631204163196,37204,261131,259218
1631204163206,37205,261151,259234
1631204163216,37219,261172,259248
1631204163226,37220,261158,259244
1631204163236,37231,261155,259227
1631204163246,37246,261134,259223
1631204163256,37251,261190,259266
1631204163266,37262,261206,259257
1631204163276,37273,261232,259277
1631204163286,37289,261196,259291
1631204163296,37298,261198,259282
1631204163306,37311,261240,259293
1631204163316,37319,261225,259253
1631204163326,37330,261252,259278
1631204163336,37349,261300,259296
1631204163346,37361,261321,259292
1631204163356,37370,261293,259269
1631204163366,37386,261273,259301
1631204163376,37401,261284,259309
1631204163386,37421,261300,259337
1631204163396,37439,261330,259338
1631204163406,37434,261367,259366
1631204163416,37462,261391,259338
1631204163426,37475,261369,259351
1631204163436,37489,261400,259340
1631204163446,37500,261384,259354
1631204163456,37526,261415,259381
1631204163466,37535,261439,259369
1631204163476,37556,261438,259366
1631204163486,37584,261454,259393
1631204163496,37591,261443,259419
1631204163506,37607,261525,259392
1631204163516,37629,261509,259407
1631204163526,37641,261547,259425
1631204163536,37664,261565,259434
1631204163546,37680,261546,259411
1631204163556,37706,261552,259466
1631204163566,37721,261605,259459
1631204163576,37738,261643,259468
1631204163586,37767,261644,259462
1631204163596,37781,261626,259494
1631204163606,37802,261647,259518
1631204163616,37821,261680,259509
1631204163626,37833,261704,259537
1631204163636,37843,261643,259524
1631204163646,37839,261670,259535
1631204163656,37827,261650,259518
1631204163666,37811,261619,259488
1631204163676,37779,261601,259497
1631204163686,37748,261546,259493
1631204163696,37716,261491,259447
1631204163706,37696,261474,259469
1631204163716,37645,261450,259426
1631204163726,37629,261448,259445
1631204163736,37597,261441,259398
1631204163746,37564,261413,259427
1631204163756,37540,261364,259404
1631204163766,37522,261334,259434
1631204163776,37501,261319,259403
1631204163786,37481,261322,259371
1631204163796,37468,261314,259375
1631204163806,37446,261285,259365
1631204163816,37436,261308,259345
1631204163826,37425,261250,259349
1631204163836,37413,261317,259352
1631204163846,37394,261271,259339
1631204163856,37393,261228,259328
1631204163866,37396,261311,259370
1631204163876,37402,261256,259363
1631204163886,37390,261288,259339
1631204163896,37383,261255,259324
1631204163906,37389,261266,259345
1631204163916,37378,261271,259350
1631204163926,37371,261275,259314
1631204163936,37369,261301,259309
1631204163946,37369,261283,259340
1631204163956,37363,261225,259303
1631204163966,37366,261268,259308
1631204163976,37363,261229,259340
1631204163986,37355,261243,259306
1631204163996,37352,261248,259299
1631204164006,37352,261279,259346
1631204164016,37350,261244,259327
1631204164026,37351,261285,259316
1631204164036,37360,261248,259319
1631204164046,37356,261281,259306
1631204164056,37370,261339,259332
1631204164066,37392,261310,259330
1631204164076,37384,261329,259353
1631204164086,37393,261286,259358
1631204164096,37405,261302,259325
1631204164106,37409,261289,259338
1631204164116,37420,261276,259325
1631204164126,37438,261381,259342
1631204164136,37443,261340,259337
1631204164146,37462,261362,259371
1631204164156,37468,261376,259330
1631204164166,37476,261391,259352
1631204164176,37487,261406,259333
1631204164186,37509,261359,259353
1631204164196,37513,261406,259354
1631204164206,37536,261401,259342
1631204164216,37531,261424,259338
1631204164226,37555,261416,259378
1631204164236,37568,261500,259370
1631204164246,37588,261457,259369
1631204164256,37600,261461,259395
1631204164266,37613,261513,259414
1631204164276,37629,261500,259372
1631204164286,37652,261517,259411
1631204164296,37657,261521,259448
1631204164306,37681,261531,259413
1631204164316,37689,261532,259419
1631204164326,37704,261531,259456
1631204164336,37718,261587,259424
1631204164346,37729,261601,259470
1631204164356,37751,261548,259477
1631204164366,37759,261612,259482
1631204164376,37784,261635,259498
1631204164386,37785,261656,259487
1631204164396,37815,261673,259487
1631204164406,37834,261642,259511
1631204164416,37844,261617,259524
1631204164426,37861,261664,259523
1631204164436,37876,261714,259544
1631204164446,37888,261662,259545
1631204164456,37904,261685,259545
1631204164466,37919,261729,259549
1631204164476,37929,261644,259546
1631204164486,37931,261669,259530
1631204164496,37927,261643,259529
1631204164506,37910,261628,259554
1631204164516,37885,261558,259539
1631204164526,37857,261560,259534
1631204164536,37825,261500,259510
1631204164546,37782,261438,259526
1631204164556,37736,261409,259494
1631204164566,37700,261369,259472
1631204164576,37671,261308,259500
1631204164586,37630,261270,259462
1631204164596,37598,261294,259471
1631204164606,37567,261273,259441
1631204164616,37545,261235,259440
1631204164626,37511,261178,259431
1631204164636,37477,261157,259418
1631204164646,37449,261101,259424
1631204164656,37423,261073,259408
1631204164666,37410,261083,259424
1631204164676,37385,261063,259382
1631204164686,37354,261043,259387
1631204164696,37345,261032,259387
1631204164706,37329,261035,259348
1631204164716,37318,260996,259366
1631204164726,37307,260988,259375
1631204164736,37302,260997,259360
1631204164746,37284,260986,259360
1631204164756,37280,260951,259372
1631204164766,37268,260980,259367
1631204164776,37262,260938,259382
1631204164786,37249,260982,259348
1631204164796,37245,260906,259380
1631204164806,37233,260883,259356
1631204164816,37234,260892,259366
1631204164826,37219,260898,259374
1631204164836,37208,260917,259360
1631204164846,37204,260880,259345
1631204164856,37191,260883,259373
1631204164866,37202,260906,259333
1631204164876,37185,260899,259357
1631204164886,37186,260882,259347
1631204164896,37190,260868,259339
1631204164906,37191,260900,259334
1631204164916,37187,260875,259353
1631204164926,37192,260881,259361
1631204164936,37191,260924,259350
1631204164946,37193,260894,259392
1631204164956,37204,260889,259347
1631204164966,37205,260903,259378
1631204164976,37210,260930,259354
1631204164986,37216,260929,259347
1631204164996,37226,260917,259374
1631204165006,37234,260947,259370
1631204165016,37251,260911,259380
1631204165026,37255,260961,259402
1631204165036,37256,260954,259407
1631204165046,37264,260942,259417
1631204165056,37275,260957,259397
1631204165066,37281,260962,259409
1631204165076,37294,261007,259416
1631204165086,37286,260989,259427
1631204165096,37315,260991,259421
1631204165106,37325,260991,259421
1631204165116,37332,261020,259482
1631204165126,37341,260980,259465
1631204165136,37346,261057,259441
1631204165146,37355,261013,259456
1631204165156,37374,261064,259439
1631204165166,37390,261065,259466
1631204165176,37410,261072,259460
1631204165186,37408,261098,259445
1631204165196,37419,261110,259499
1631204165206,37432,261115,259507
1631204165216,37441,261103,259468
1631204165226,37455,261131,259491
1631204165236,37460,261165,259491
1631204165246,37478,261147,259465
1631204165256,37483,261163,259489
1631204165266,37499,261171,259476
1631204165276,37516,261198,259458
1631204165286,37531,261191,259495
1631204165296,37538,261179,259501
1631204165306,37553,261233,259465
1631204165316,37570,261239,259500
1631204165326,37582,261275,259501
1631204165336,37599,261234,259499
1631204165346,37612,261256,259518
1631204165356,37607,261294,259515
1631204165366,37611,261257,259513
1631204165376,37593,261215,259496
1631204165386,37576,261179,259503
1631204165396,37552,261184,259466
1631204165406,37518,261166,259473
1631204165416,37494,261080,259459
1631204165426,37463,261048,259448
1631204165436,37419,261063,259430
1631204165446,37389,261030,259414
1631204165456,37355,260988,259377
1631204165466,37326,260959,259371
1631204165476,37291,260924,259394
1631204165486,37271,260900,259350
1631204165496,37256,260923,259327
1631204165506,37226,260894,259323
1631204165516,37195,260858,259320
1631204165526,37167,260874,259300
1631204165536,37142,260850,259307
1631204165546,37125,260830,259281
1631204165556,37119,260830,259283
1631204165566,37100,260810,259299
1631204165576,37075,260809,259254
1631204165586,37065,260794,259280
1631204165596,37058,260753,259235
1631204165606,37053,260768,259247
1631204165616,37050,260773,259253
1631204165626,37047,260792,259235
1631204165636,37036,260779,259285
1631204165646,37028,260760,259225
1631204165656,37024,260775,259221
1631204165666,37024,260759,259220
1631204165676,37015,260739,259247
1631204165686,37008,260739,259207
1631204165696,36999,260793,259230
1631204165706,36996,260745,259222
1631204165716,36991,260720,259193
1631204165726,36986,260727,259215
1631204165736,36981,260736,259227
1631204165746,36982,260737,259190
1631204165756,36993,260774,259189
1631204165766,36988,260765,259186
1631204165776,36989,260801,259202
1631204165786,36995,260763,259191
1631204165796,36990,260814,259164
1631204165806,36996,260756,259204
1631204165816,37016,260814,259198
1631204165826,37011,260785,259187
1631204165836,37018,260788,259192
1631204165846,37023,260772,259193
1631204165856,37030,260830,259183
1631204165866,37036,260826,259179
1631204165876,37046,260836,259188
1631204165886,37061,260874,259219
1631204165896,37067,260832,259193
1631204165906,37082,260869,259220
1631204165916,37089,260840,259221
1631204165926,37096,260844,259192
1631204165936,37107,260903,259198
1631204165946,37111,260903,259197
1631204165956,37131,260906,259231
1631204165966,37140,260901,259218
1631204165976,37163,260921,259234
1631204165986,37164,260933,259213
1631204165996,37180,260933,259210
1631204166006,37194,260963,259211
1631204166016,37199,260983,259222
1631204166026,37218,261016,259202
1631204166036,37226,260972,259202
1631204166046,37239,261006,259246
1631204166056,37264,261027,259241
1631204166066,37272,261051,259238
1631204166076,37280,261066,259248
1631204166086,37302,261066,259233
1631204166096,37309,261043,259257
1631204166106,37331,261096,259271
1631204166116,37343,261065,259246
1631204166126,37357,261113,259283
1631204166136,37376,261127,259263
1631204166146,37387,261130,259264
1631204166156,37403,261125,259315
1631204166166,37420,261165,259259
1631204166176,37451,261177,259288
1631204166186,37449,261212,259272
1631204166196,37467,261227,259312
1631204166206,37480,261292,259293
1631204166216,37503,261232,259300
1631204166226,37513,261243,259310
1631204166236,37518,261195,259307
1631204166246,37510,261240,259317
1631204166256,37503,261209,259324
1631204166266,37478,261159,259335
1631204166276,37453,261112,259293
1631204166286,37420,261075,259326
1631204166296,37389,261052,259287
1631204166306,37366,261001,259277
1631204166316,37331,260972,259281
1631204166326,37288,260953,259270
1631204166336,37261,260938,259265
1631204166346,37237,260927,259250
1631204166356,37207,260879,259247
1631204166366,37180,260879,259254
1631204166376,37161,260819,259196
1631204166386,37146,260810,259216
1631204166396,37130,260838,259218
1631204166406,37109,260806,259210
1631204166416,37098,260740,259235
1631204166426,37076,260774,259238
1631204166436,37063,260755,259239
1631204166446,37046,260755,259247
1631204166456,37040,260700,259246
1631204166466,37038,260644,259242
1631204166476,37028,260665,259229
1631204166486,37035,260657,259261
1631204166496,37008,260662,259278
1631204166506,37013,260679,259258
1631204166516,37001,260632,259254
1631204166526,36995,260606,259233
1631204166536,36978,260575,259247
1631204166546,36979,260568,259237
1631204166556,36972,260575,259233
1631204166566,36955,260534,259234
1631204166576,36943,260555,259203
1631204166586,36932,260545,259201
1631204166596,36923,260532,259153
1631204166606,36908,260568,259153
1631204166616,36898,260556,259118
1631204166626,36887,260525,259106
1631204166636,36895,260546,259098
1631204166646,36876,260494,259046
1631204166656,36877,260510,259023
1631204166666,36874,260530,259005
1631204166676,36862,260537,259021
1631204166686,36863,260506,259001
1631204166696,36868,260526,258971
1631204166706,36863,260549,258998
1631204166716,36864,260530,258970
1631204166726,36860,260538,258938
1631204166736,36876,260541,258971
1631204166746,36874,260550,258926
1631204166756,36871,260538,258932
1631204166766,36879,260568,258933
1631204166776,36886,260577,258905
1631204166786,36901,260528,258924
1631204166796,36897,260583,258903
1631204166806,36921,260576,258958
1631204166816,36925,260623,258920
1631204166826,36922,260598,258936
1631204166836,36937,260605,258925
1631204166846,36947,260597,258934
1631204166856,36960,260601,258938
1631204166866,36978,260597,258946
1631204166876,36980,260587,258926
1631204166886,36988,260670,258918
1631204166896,36993,260657,258926
1631204166906,37008,260676,258910
1631204166916,37016,260696,258877
1631204166926,37027,260699,258875
1631204166936,37037,260742,258886
1631204166946,37048,260736,258874
1631204166956,37065,260753,258888
1631204166966,37070,260740,258872
1631204166976,37090,260767,258883
1631204166986,37091,260801,258861
1631204166996,37111,260802,258867
1631204167006,37117,260855,258842
1631204167016,37133,260861,258840
1631204167026,37155,260894,258833
1631204167036,37163,260881,258873
1631204167046,37179,260920,258842
1631204167056,37189,260890,258844
1631204167066,37201,260910,258839
1631204167076,37193,260922,258862
1631204167086,37182,260897,258827
1631204167096,37192,260867,258819
1631204167106,37167,260848,258845
1631204167116,37155,260813,258829
1631204167126,37134,260781,258812
1631204167136,37102,260762,258774
1631204167146,37082,260735,258803
1631204167156,37055,260719,258738
1631204167166,37035,260699,258764
1631204167176,37004,260652,258741
1631204167186,36980,260638,258739
1631204167196,36954,260625,258725
1631204167206,36931,260614,258748
1631204167216,36909,260555,258684
1631204167226,36894,260587,258694
1631204167236,36880,260582,258696
1631204167246,36862,260545,258711
1631204167256,36848,260551,258670
1631204167266,36839,260557,258702
1631204167276,36827,260527,258647
1631204167286,36814,260521,258678
1631204167296,36823,260525,258632
1631204167306,36813,260526,258662
1631204167316,36816,260515,258639
1631204167326,36804,260510,258638
1631204167336,36804,260549,258627
1631204167346,36791,260551,258621
1631204167356,36805,260514,258611
1631204167366,36792,260512,258615
1631204167376,36793,260502,258606
1631204167386,36780,260524,258600
1631204167396,36784,260439,258602
1631204167406,36770,260483,258600
1631204167416,36776,260481,258562
1631204167426,36767,260510,258566
1631204167436,36762,260511,258564
1631204167446,36770,260531,258580
1631204167456,36764,260545,258601
1631204167466,36762,260522,258556
1631204167476,36769,260527,258568
1631204167486,36780,260469,258564
1631204167496,36784,260518,258574
1631204167506,36791,260529,258549
1631204167516,36794,260525,258547
1631204167526,36810,260544,258562
1631204167536,36809,260550,258570
1631204167546,36821,260575,258574
1631204167556,36829,260581,258615
1631204167566,36838,260556,258576
1631204167576,36847,260586,258609
1631204167586,36855,260602,258569
1631204167596,36873,260607,258552
1631204167606,36884,260615,258587
1631204167616,36906,260660,258619
1631204167626,36906,260645,258580
1631204167636,36926,260655,258616
1631204167646,36932,260669,258632
1631204167656,36946,260659,258618
1631204167666,36953,260689,258602
1631204167676,36971,260712,258594
1631204167686,36976,260703,258626
1631204167696,36997,260725,258632
1631204167706,37011,260778,258621
1631204167716,37025,260741,258625
1631204167726,37040,260755,258613
1631204167736,37053,260821,258619
1631204167746,37074,260783,258602
1631204167756,37087,260807,258651
1631204167766,37099,260795,258644
1631204167776,37113,260849,258679
1631204167786,37135,260872,258678
1631204167796,37150,260881,258676
1631204167806,37169,260899,258677
1631204167816,37187,260936,258693
1631204167826,37202,260940,258677
1631204167836,37218,260956,258732
1631204167846,37230,260961,258725
1631204167856,37252,260954,258730
1631204167866,37253,260967,258727
1631204167876,37256,260900,258750
1631204167886,37252,260933,258748
1631204167896,37228,260886,258715
1631204167906,37197,260890,258705
1631204167916,37178,260851,258680
1631204167926,37157,260828,258678
1631204167936,37125,260831,258663
1631204167946,37098,260751,258654
1631204167956,37085,260733,258686
1631204167966,37060,260714,258622
1631204167976,37029,260702,258663
1631204167986,37016,260682,258644
1631204167996,37000,260674,258628
1631204168006,36978,260660,258632
1631204168016,36965,260646,258638
1631204168026,36948,260670,258641
1631204168036,36934,260665,258608
1631204168046,36921,260654,258620
1631204168056,36912,260637,258603
1631204168066,36908,260630,258609
1631204168076,36900,260600,258624
1631204168086,36901,260665,258619
1631204168096,36903,260594,258624
1631204168106,36891,260647,258607
1631204168116,36892,260625,258601
1631204168126,36905,260632,258637
1631204168136,36895,260618,258619
1631204168146,36900,260599,258617
1631204168156,36890,260626,258606
1631204168166,36889,260611,258636
1631204168176,36892,260610,258621
1631204168186,36891,260626,258632
1631204168196,36881,260605,258604
1631204168206,36882,260613,258589
1631204168216,36877,260619,258641
1631204168226,36884,260660,258598
1631204168236,36883,260586,258626
1631204168246,36884,260638,258637
1631204168256,36896,260645,258612
1631204168266,36897,260621,258637
1631204168276,36893,260634,258637
1631204168286,36908,260652,258620
1631204168296,36921,260641,258629
1631204168306,36910,260665,258628
1631204168316,36915,260696,258662
1631204168326,36925,260684,258667
1631204168336,36931,260674,258646
1631204168346,36951,260688,258656
1631204168356,36956,260725,258645
1631204168366,36954,260723,258643
1631204168376,36969,260730,258645
1631204168386,36980,260770,258662
1631204168396,36983,260775,258676
1631204168406,37008,260794,258696
1631204168416,37024,260757,258682
1631204168426,37032,260827,258683
1631204168436,37047,260793,258683
1631204168446,37054,260778,258679
1631204168456,37063,260823,258686
1631204168466,37076,260856,258681
1631204168476,37088,260791,258724
1631204168486,37106,260850,258719
1631204168496,37120,260881,258721
1631204168506,37133,260879,258729
1631204168516,37143,260923,258708
1631204168526,37147,260868,258722
1631204168536,37168,260933,258749
1631204168546,37187,260901,258730
1631204168556,37194,260949,258771
1631204168566,37210,260956,258767
1631204168576,37230,260985,258751
1631204168586,37246,261010,258749
1631204168596,37257,261025,258785
1631204168606,37272,261033,258792
1631204168616,37295,261015,258782
1631204168626,37301,261078,258801
1631204168636,37317,261082,258777
1631204168646,37324,261060,258819
1631204168656,37333,261066,258836
1631204168666,37337,261070,258800
1631204168676,37318,261063,258781
1631204168686,37302,261031,258804
1631204168696,37294,261000,258815
1631204168706,37255,260959,258762
1631204168716,37229,260981,258741
1631204168726,37201,260896,258742
1631204168736,37181,260874,258738
1631204168746,37156,260902,258742
1631204168756,37134,260867,258727
1631204168766,37101,260790,258707
1631204168776,37088,260815,258716
1631204168786,37065,260790,258693
1631204168796,37050,260798,258690
1631204168806,37034,260764,258684
1631204168816,37022,260766,258683
1631204168826,37012,260807,258684
1631204168836,36999,260744,258694
1631204168846,36990,260755,258692
1631204168856,36980,260759,258675
1631204168866,36979,260752,258683
1631204168876,36971,260776,258671
1631204168886,36975,260753,258694
1631204168896,36974,260766,258697
1631204168906,36982,260747,258689
1631204168916,36969,260733,258671
1631204168926,36975,260752,258696
1631204168936,36977,260760,258661
1631204168946,36967,260734,258683
1631204168956,36962,260784,258649
1631204168966,36965,260775,258671
1631204168976,36955,260767,258662
1631204168986,36962,260767,258647
1631204168996,36951,260755,258639
1631204169006,36951,260763,258658
1631204169016,36952,260749,258695
1631204169026,36953,260731,258674
1631204169036,36959,260769,258662
1631204169046,36959,260782,258654
1631204169056,36972,260786,258669
1631204169066,36971,260778,258658
1631204169076,36976,260825,258664
1631204169086,36982,260807,258662
1631204169096,36985,260820,258644
1631204169106,36991,260810,258678
1631204169116,37005,260852,258686
1631204169126,37026,260838,258671
1631204169136,37023,260832,258686
1631204169146,37030,260874,258692
1631204169156,37047,260884,258693
1631204169166,37054,260864,258692
1631204169176,37066,260870,258729
1631204169186,37081,260901,258717
1631204169196,37091,260903,258695
1631204169206,37097,260884,258762
1631204169216,37111,260926,258715
1631204169226,37128,260945,258715
1631204169236,37132,260891,258694
1631204169246,37145,260939,258715
1631204169256,37169,260973,258748
1631204169266,37178,260981,258721
1631204169276,37190,261002,258780
1631204169286,37204,261008,258744
1631204169296,37217,260979,258785
1631204169306,37226,261061,258750
1631204169316,37244,261027,258784
1631204169326,37254,261071,258752
1631204169336,37275,261096,258788
1631204169346,37287,261100,258784
1631204169356,37303,261111,258777
1631204169366,37308,261134,258791
1631204169376,37328,261137,258788
1631204169386,37347,261128,258811
1631204169396,37359,261148,258813
1631204169406,37390,261181,258816
1631204169416,37388,261199,258839
1631204169426,37404,261186,258835
1631204169436,37423,261242,258839
1631204169446,37438,261205,258836
1631204169456,37440,261225,258862
1631204169466,37445,261227,258834
1631204169476,37434,261189,258818
1631204169486,37414,261192,258838
1631204169496,37390,261128,258781
1631204169506,37373,261138,258797
1631204169516,37342,261118,258802
1631204169526,37316,261048,258783
1631204169536,37293,261036,258759
1631204169546,37264,261032,258760
1631204169556,37257,261009,258758
1631204169566,37243,260982,258728
1631204169576,37211,260973,258764
1631204169586,37200,260995,258747
1631204169596,37190,260978,258729
1631204169606,37173,260975,258751
1631204169616,37159,260952,258744
1631204169626,37155,260935,258730
1631204169636,37148,260958,258702
1631204169646,37139,260986,258723
1631204169656,37140,260981,258720
1631204169666,37134,260947,258699
1631204169676,37129,260937,258724
1631204169686,37134,260971,258735
1631204169696,37132,260953,258717
1631204169706,37127,260958,258728
1631204169716,37140,260963,258724
1631204169726,37138,260962,258708
1631204169736,37134,260955,258695
1631204169746,37125,260948,258698
1631204169756,37129,260927,258703
1631204169766,37122,260968,258703
1631204169776,37121,260956,258697
1631204169786,37118,260949,258688
1631204169796,37120,260945,258687
1631204169806,37114,260978,258703
1631204169816,37115,260973,258717
1631204169826,37121,260986,258690
1631204169836,37112,260958,258716
1631204169846,37129,260967,258698
1631204169856,37133,260971,258701
1631204169866,37129,260971,258720
1631204169876,37145,260958,258716
1631204169886,37141,261024,258724
1631204169896,37146,260967,258708
1631204169906,37153,261017,258718
1631204169916,37169,261010,258712
1631204169926,37176,261003,258720
1631204169936,37181,261008,258746
1631204169946,37199,261042,258746
1631204169956,37206,261059,258752
1631204169966,37210,261043,258737
1631204169976,37227,261045,258718
1631204169986,37239,261110,258716
1631204169996,37249,261094,258755
1631204170006,37259,261111,258757
1631204170016,37275,261104,258730
1631204170026,37289,261166,258746
1631204170036,37280,261121,258744
1631204170046,37298,261148,258745
1631204170056,37303,261167,258787
1631204170066,37323,261164,258781
1631204170076,37349,261185,258789
1631204170086,37363,261208,258783
1631204170096,37374,261225,258781
1631204170106,37377,261187,258785
1631204170116,37398,261228,258789
1631204170126,37410,261269,258837
1631204170136,37421,261262,258811
1631204170146,37435,261282,258806
1631204170156,37460,261283,258835
1631204170166,37474,261303,258813
1631204170176,37481,261329,258849
1631204170186,37494,261336,258843
1631204170196,37513,261374,258836
1631204170206,37533,261314,258851
1631204170216,37539,261357,258853
1631204170226,37533,261337,258870
1631204170236,37529,261342,258843
1631204170246,37515,261301,258855
1631204170256,37501,261276,258803
1631204170266,37473,261218,258825
1631204170276,37443,261215,258808
1631204170286,37421,261207,258815
1631204170296,37400,261147,258778
1631204170306,37366,261167,258770
1631204170316,37346,261139,258774
1631204170326,37319,261126,258771
1631204170336,37301,261085,258756
1631204170346,37279,261102,258746
1631204170356,37274,261095,258755
1631204170366,37249,261116,258737
1631204170376,37243,261034,258749
1631204170386,37223,261015,258743
1631204170396,37216,261057,258713
1631204170406,37208,261077,258734
1631204170416,37203,261040,258712
1631204170426,37198,261067,258718
1631204170436,37196,261047,258737
1631204170446,37200,261056,258724
1631204170456,37202,261076,258671
1631204170466,37211,261032,258721
1631204170476,37199,261041,258707
1631204170486,37213,261070,258717
1631204170496,37202,261041,258703
1631204170506,37189,261061,258700
