timestamp,green,ir,red
1631106796168,21472,279960,186944
1631106796178,21484,280034,186947
1631106796188,21501,280017,186964
1631106796198,21511,280030,186972
1631106796208,21532,280031,186968
1631106796218,21534,280061,186994
1631106796228,21552,280073,186992
1631106796238,21559,280105,186993
1631106796248,21573,280149,186976
1631106796258,21585,280123,187001
1631106796268,21601,280136,187012
1631106796278,21611,280175,186998
1631106796288,21624,280223,187032
1631106796298,21639,280193,187025
1631106796308,21647,280197,187016
1631106796318,21662,280241,187033
1631106796328,21675,280206,187041
1631106796338,21685,280303,187041
1631106796348,21697,280307,187056
1631106796358,21711,280292,187046
1631106796368,21730,280306,187047
1631106796378,21746,280333,187049
1631106796388,21756,280364,187061
1631106796398,21761,280340,187062
1631106796408,21775,280367,187077
1631106796418,21786,280382,187086
1631106796428,21799,280388,187084
1631106796438,21816,280410,187093
1631106796448,21827,280429,187103
1631106796458,21846,280439,187107
1631106796468,21860,280435,187079
1631106796478,21869,280528,187106
1631106796488,21890,280566,187127
1631106796498,21897,280491,187134
1631106796508,21896,280586,187127
1631106796518,21887,280552,187116
1631106796528,21867,280491,187137
1631106796538,21828,280457,187103
1631106796548,21797,280418,187097
1631106796558,21751,280334,187053
1631106796568,21709,280307,187058
1631106796578,21664,280278,187054
1631106796588,21628,280160,187027
1631106796598,21595,280189,187024
1631106796608,21558,280135,187024
1631106796618,21535,280116,186999
1631106796628,21517,280088,187030
1631106796638,21497,280067,186992
1631106796648,21483,280050,186991
1631106796658,21466,280067,186981
1631106796668,21448,280033,186992
1631106796678,21445,280033,186980
1631106796688,21415,279999,186967
1631106796698,21393,279977,186956
1631106796708,21395,279984,186981
1631106796718,21375,279962,186951
1631106796728,21366,279917,186960
1631106796738,21361,279931,186944
1631106796748,21359,279970,186963
1631106796758,21351,279920,186956
1631106796768,21349,279953,186939
1631106796778,21346,279920,186950
1631106796788,21343,279934,186939
1631106796798,21338,279960,186962
1631106796808,21333,279917,186934
1631106796818,21326,279882,186947
1631106796828,21329,279866,186944
1631106796838,21329,279900,186918
1631106796848,21312,279870,186941
1631106796858,21315,279926,186927
1631106796868,21306,279858,186920
1631106796878,21306,279839,186930
1631106796888,21305,279867,186929
1631106796898,21310,279868,186922
1631106796908,21311,279883,186908
1631106796918,21317,279865,186926
1631106796928,21319,279874,186923
1631106796938,21323,279887,186914
1631106796948,21323,279876,186910
1631106796958,21334,279930,186899
1631106796968,21342,279906,186917
1631106796978,21347,279928,186914
1631106796988,21363,279887,186928
1631106796998,21364,279936,186917
1631106797008,21382,279907,186938
1631106797018,21392,279955,186921
1631106797028,21392,279956,186930
1631106797038,21400,279999,186937
1631106797048,21413,279972,186938
1631106797058,21426,279968,186955
1631106797068,21437,279987,186952
1631106797078,21444,279999,186956
1631106797088,21464,280006,186949
1631106797098,21468,280052,186951
1631106797108,21485,280028,186959
1631106797118,21494,280080,186974
1631106797128,21511,280074,186966
1631106797138,21523,280097,186968
1631106797148,21524,280144,187007
1631106797158,21547,280113,186991
1631106797168,21563,280144,186999
1631106797178,21574,280154,186973
1631106797188,21588,280198,186982
1631106797198,21597,280176,186993
1631106797208,21611,280158,187002
1631106797218,21623,280180,186998
1631106797228,21634,280186,186989
1631106797238,21643,280218,186999
1631106797248,21656,280291,186994
1631106797258,21671,280246,187002
1631106797268,21690,280250,187025
1631106797278,21697,280258,187025
1631106797288,21706,280280,187012
1631106797298,21725,280311,187023
1631106797308,21738,280319,187008
1631106797318,21743,280347,187029
1631106797328,21765,280340,187005
1631106797338,21781,280394,187031
1631106797348,21797,280414,187055
1631106797358,21812,280395,187049
1631106797368,21815,280378,187042
1631106797378,21830,280422,187061
1631106797388,21840,280450,187057
1631106797398,21858,280494,187055
1631106797408,21872,280465,187052
1631106797418,21885,280474,187066
1631106797428,21908,280530,187074
1631106797438,21917,280524,187077
1631106797448,21930,280543,187096
1631106797458,21929,280549,187093
1631106797468,21916,280529,187087
1631106797478,21900,280502,187070
1631106797488,21867,280496,187061
1631106797498,21818,280433,187040
1631106797508,21785,280360,187032
1631106797518,21726,280331,187000
1631106797528,21685,280225,186992
1631106797538,21641,280220,186962
1631106797548,21601,280136,186947
1631106797558,21562,280126,186959
1631106797568,21529,280108,186936
1631106797578,21500,280083,186918
1631106797588,21475,280009,186935
1631106797598,21451,279973,186929
1631106797608,21431,279983,186898
1631106797618,21405,279946,186887
1631106797628,21382,279917,186882
1631106797638,21355,279873,186882
1631106797648,21328,279901,186872
1631106797658,21315,279855,186840
1631106797668,21281,279820,186847
1631106797678,21264,279763,186830
1631106797688,21253,279776,186821
1631106797698,21238,279764,186830
1631106797708,21238,279798,186826
1631106797718,21230,279773,186816
1631106797728,21225,279762,186807
1631106797738,21211,279716,186815
1631106797748,21203,279736,186832
1631106797758,21196,279740,186826
1631106797768,21194,279741,186796
1631106797778,21188,279696,186818
1631106797788,21182,279704,186825
1631106797798,21180,279721,186838
1631106797808,21185,279726,186819
1631106797818,21163,279689,186820
1631106797828,21165,279728,186823
1631106797838,21159,279665,186814
1631106797848,21153,279687,186826
1631106797858,21166,279709,186798
1631106797868,21162,279645,186814
1631106797878,21161,279696,186806
1631106797888,21161,279689,186791
1631106797898,21169,279720,186824
1631106797908,21172,279692,186804
1631106797918,21179,279702,186816
1631106797928,21193,279717,186829
1631106797938,21198,279735,186827
1631106797948,21209,279745,186829
1631106797958,21217,279747,186843
1631106797968,21234,279801,186827
1631106797978,21239,279824,186853
1631106797988,21241,279790,186871
1631106797998,21257,279785,186830
1631106798008,21261,279793,186873
1631106798018,21279,279836,186875
1631106798028,21288,279843,186883
1631106798038,21300,279858,186889
1631106798048,21310,279882,186895
1631106798058,21321,279919,186878
1631106798068,21340,279925,186902
1631106798078,21353,279970,186908
1631106798088,21367,279940,186912
1631106798098,21380,279958,186909
1631106798108,21386,279981,186933
1631106798118,21401,279983,186910
1631106798128,21407,280052,186926
1631106798138,21436,280021,186907
1631106798148,21445,280033,186931
1631106798158,21460,280072,186918
1631106798168,21471,280084,186893
1631106798178,21482,280077,186943
1631106798188,21498,280127,186925
1631106798198,21516,280156,186947
1631106798208,21526,280170,186964
1631106798218,21541,280194,186959
1631106798228,21561,280174,186937
1631106798238,21565,280205,186956
1631106798248,21583,280246,186967
1631106798258,21599,280244,186957
1631106798268,21613,280238,186956
1631106798278,21628,280290,186982
1631106798288,21635,280308,186987
1631106798298,21649,280299,186991
1631106798308,21669,280362,186998
1631106798318,21692,280389,187010
1631106798328,21707,280354,186999
1631106798338,21721,280379,187040
1631106798348,21737,280416,187055
1631106798358,21752,280440,187041
1631106798368,21765,280470,187048
1631106798378,21787,280498,187050
1631106798388,21795,280517,187083
1631106798398,21817,280528,187089
1631106798408,21817,280558,187080
1631106798418,21807,280526,187091
1631106798428,21785,280482,187071
1631106798438,21757,280476,187063
1631106798448,21714,280400,187048
1631106798458,21672,280338,187025
1631106798468,21640,280292,187026
1631106798478,21600,280240,186998
1631106798488,21553,280203,186992
1631106798498,21515,280191,186981
1631106798508,21485,280141,186968
1631106798518,21451,280149,186945
1631106798528,21424,280108,186956
1631106798538,21398,280102,186942
1631106798548,21379,280039,186922
1631106798558,21359,280020,186949
1631106798568,21338,280071,186936
1631106798578,21314,280025,186927
1631106798588,21296,280031,186926
1631106798598,21275,279999,186929
1631106798608,21247,279954,186923
1631106798618,21237,279942,186918
1631106798628,21226,279953,186896
1631106798638,21218,279973,186903
1631106798648,21221,279942,186881
1631106798658,21213,279947,186893
1631106798668,21206,279987,186888
1631106798678,21203,279971,186891
1631106798688,21197,279916,186901
1631106798698,21193,279940,186896
1631106798708,21188,279918,186881
1631106798718,21184,279900,186883
1631106798728,21177,279912,186879
1631106798738,21173,279930,186882
1631106798748,21168,279911,186841
1631106798758,21166,279893,186876
1631106798768,21167,279879,186851
1631106798778,21167,279917,186861
1631106798788,21169,279890,186849
1631106798798,21173,279888,186847
1631106798808,21173,279906,186867
1631106798818,21182,279864,186866
1631106798828,21187,279907,186870
1631106798838,21191,279904,186869
1631106798848,21197,279928,186879
1631106798858,21208,279945,186874
1631106798868,21212,279941,186868
1631106798878,21225,279954,186881
1631106798888,21233,279964,186891
1631106798898,21240,279980,186879
1631106798908,21256,279962,186906
1631106798918,21265,279993,186897
1631106798928,21269,280019,186913
1631106798938,21295,280050,186925
1631106798948,21303,280057,186891
1631106798958,21315,280062,186919
1631106798968,21310,280038,186924
1631106798978,21332,280094,186936
1631106798988,21342,280068,186917
1631106798998,21355,280052,186960
1631106799008,21373,280143,186936
1631106799018,21382,280119,186942
1631106799028,21394,280136,186977
1631106799038,21403,280151,186968
1631106799048,21420,280158,186959
1631106799058,21436,280151,186963
1631106799068,21443,280171,186971
1631106799078,21453,280161,186973
1631106799088,21471,280200,186992
1631106799098,21469,280230,186975
1631106799108,21492,280241,187008
1631106799118,21507,280250,187010
1631106799128,21519,280298,187009
1631106799138,21532,280334,187028
1631106799148,21549,280429,187080
1631106799158,21565,280438,187081
1631106799168,21579,280464,187083
1631106799178,21591,280533,187104
1631106799188,21607,280555,187125
1631106799198,21620,280600,187140
1631106799208,21639,280620,187157
1631106799218,21656,280695,187181
1631106799228,21664,280697,187212
1631106799238,21679,280762,187239
1631106799248,21689,280783,187261
1631106799258,21707,280857,187261
1631106799268,21720,280861,187260
1631106799278,21735,280903,187275
1631106799288,21742,280900,187288
1631106799298,21746,280916,187291
1631106799308,21731,280888,187283
1631106799318,21710,280913,187284
1631106799328,21679,280875,187300
1631106799338,21644,280890,187280
1631106799348,21602,280883,187278
1631106799358,21562,280878,187263
1631106799368,21521,280838,187270
1631106799378,21479,280844,187282
1631106799388,21447,280810,187260
1631106799398,21418,280854,187262
1631106799408,21385,280824,187256
1631106799418,21358,280831,187260
1631106799428,21342,280818,187243
1631106799438,21316,280833,187250
1631106799448,21305,280889,187242
1631106799458,21288,280912,187261
1631106799468,21266,280923,187281
1631106799478,21251,280925,187271
1631106799488,21234,280937,187260
1631106799498,21221,280943,187269
1631106799508,21209,280933,187230
1631106799518,21200,280932,187259
1631106799528,21195,280952,187259
1631106799538,21192,280945,187249
1631106799548,21189,280987,187248
1631106799558,21186,280961,187266
1631106799568,21185,280949,187236
1631106799578,21189,280976,187246
1631106799588,21177,280967,187254
1631106799598,21179,281044,187242
1631106799608,21181,281030,187282
1631106799618,21171,281098,187286
1631106799628,21168,281116,187295
1631106799638,21166,281162,187321
1631106799648,21160,281211,187329
1631106799658,21168,281203,187339
1631106799668,21169,281269,187353
1631106799678,21166,281294,187358
1631106799688,21171,281351,187376
1631106799698,21173,281386,187388
1631106799708,21176,281403,187411
1631106799718,21178,281447,187413
1631106799728,21184,281494,187444
1631106799738,21181,281510,187478
1631106799748,21205,281550,187462
1631106799758,21195,281554,187488
1631106799768,21203,281608,187500
1631106799778,21218,281659,187474
1631106799788,21228,281644,187487
1631106799798,21235,281674,187473
1631106799808,21246,281673,187480
1631106799818,21264,281701,187512
1631106799828,21271,281692,187493
1631106799838,21278,281731,187491
1631106799848,21291,281754,187503
1631106799858,21302,281778,187506
1631106799868,21315,281756,187512
1631106799878,21329,281785,187526
1631106799888,21347,281838,187517
1631106799898,21356,281824,187527
1631106799908,21379,281843,187515
1631106799918,21392,281808,187526
1631106799928,21402,281892,187552
1631106799938,21426,281910,187533
1631106799948,21438,281851,187554
1631106799958,21448,281897,187574
1631106799968,21468,281930,187566
1631106799978,21480,281933,187543
1631106799988,21494,281954,187561
1631106799998,21511,281982,187571
1631106800008,21522,281975,187570
1631106800018,21533,282001,187567
1631106800028,21548,282005,187568
1631106800038,21565,282018,187590
1631106800048,21577,281987,187605
1631106800058,21595,282026,187614
1631106800068,21613,282033,187577
1631106800078,21631,282032,187579
1631106800088,21649,282090,187601
1631106800098,21654,282092,187603
1631106800108,21671,282100,187623
1631106800118,21689,282157,187609
1631106800128,21704,282123,187609
1631106800138,21723,282174,187610
1631106800148,21745,282178,187648
1631106800158,21760,282209,187649
1631106800168,21776,282240,187674
1631106800178,21784,282250,187684
1631106800188,21784,282274,187683
1631106800198,21766,282248,187694
1631106800208,21748,282230,187654
1631106800218,21705,282124,187661
1631106800228,21675,282082,187607
1631106800238,21622,282073,187637
1631106800248,21595,282004,187595
1631106800258,21547,281965,187599
1631106800268,21527,281909,187572
1631106800278,21497,281909,187567
1631106800288,21460,281869,187561
1631106800298,21441,281861,187565
1631106800308,21423,281822,187562
1631106800318,21410,281804,187564
1631106800328,21380,281751,187534
1631106800338,21363,281725,187528
1631106800348,21346,281723,187547
1631106800358,21319,281713,187536
1631106800368,21301,281697,187517
1631106800378,21285,281682,187516
1631106800388,21273,281630,187531
1631106800398,21254,281638,187501
1631106800408,21236,281627,187487
1631106800418,21232,281650,187503
1631106800428,21232,281578,187509
1631106800438,21220,281640,187504
1631106800448,21218,281602,187522
1631106800458,21215,281576,187503
1631106800468,21212,281600,187496
1631106800478,21209,281578,187496
1631106800488,21203,281588,187493
1631106800498,21205,281616,187494
1631106800508,21200,281621,187493
1631106800518,21201,281535,187481
1631106800528,21196,281590,187492
1631106800538,21195,281580,187508
1631106800548,21200,281554,187495
1631106800558,21192,281579,187507
1631106800568,21206,281538,187488
1631106800578,21201,281589,187458
1631106800588,21215,281561,187479
1631106800598,21210,281585,187480
1631106800608,21218,281611,187499
1631106800618,21226,281591,187488
1631106800628,21235,281592,187484
1631106800638,21241,281592,187493
1631106800648,21253,281608,187504
1631106800658,21265,281629,187528
1631106800668,21274,281608,187516
1631106800678,21280,281582,187517
1631106800688,21291,281653,187525
1631106800698,21305,281654,187522
1631106800708,21315,281666,187530
1631106800718,21328,281671,187520
1631106800728,21354,281693,187518
1631106800738,21357,281743,187550
1631106800748,21369,281729,187552
1631106800758,21379,281742,187557
1631106800768,21393,281773,187553
1631106800778,21404,281767,187575
1631106800788,21410,281763,187555
1631106800798,21427,281845,187568
1631106800808,21440,281760,187572
1631106800818,21453,281847,187564
1631106800828,21467,281811,187570
1631106800838,21480,281855,187566
1631106800848,21493,281836,187577
1631106800858,21508,281887,187593
1631106800868,21527,281856,187602
1631106800878,21539,281930,187595
1631106800888,21564,281911,187587
1631106800898,21565,281934,187589
1631106800908,21580,281961,187603
1631106800918,21591,281961,187609
1631106800928,21605,281982,187627
1631106800938,21619,282016,187613
1631106800948,21635,282048,187621
1631106800958,21649,281980,187622
1631106800968,21656,282066,187609
1631106800978,21667,282005,187623
1631106800988,21685,282072,187620
1631106800998,21694,282062,187616
1631106801008,21707,282070,187622
1631106801018,21720,282083,187612
1631106801028,21741,282113,187614
1631106801038,21752,282136,187621
1631106801048,21762,282125,187638
1631106801058,21771,282137,187643
1631106801068,21793,282159,187616
1631106801078,21814,282183,187610
1631106801088,21815,282222,187638
1631106801098,21828,282195,187634
1631106801108,21846,282240,187654
1631106801118,21864,282271,187691
1631106801128,21862,282305,187682
1631106801138,21851,282261,187668
1631106801148,21831,282268,187680
1631106801158,21802,282183,187685
1631106801168,21765,282170,187647
1631106801178,21726,282100,187624
1631106801188,21677,282044,187622
1631106801198,21649,282004,187575
1631106801208,21602,281999,187617
1631106801218,21569,281919,187586
1631106801228,21538,281901,187573
1631106801238,21515,281891,187549
1631106801248,21495,281868,187533
1631106801258,21472,281883,187532
1631106801268,21451,281816,187510
1631106801278,21430,281776,187544
1631106801288,21409,281761,187521
1631106801298,21390,281775,187512
1631106801308,21366,281730,187505
1631106801318,21349,281712,187497
1631106801328,21327,281708,187506
1631106801338,21310,281672,187474
1631106801348,21291,281639,187466
1631106801358,21284,281662,187459
1631106801368,21280,281679,187472
1631106801378,21269,281694,187476
1631106801388,21266,281677,187453
1631106801398,21273,281626,187462
1631106801408,21265,281640,187451
1631106801418,21264,281637,187464
1631106801428,21261,281643,187457
1631106801438,21255,281646,187427
1631106801448,21253,281638,187444
1631106801458,21254,281634,187445
1631106801468,21253,281656,187450
1631106801478,21251,281646,187449
1631106801488,21249,281633,187460
1631106801498,21246,281642,187435
1631106801508,21247,281606,187430
1631106801518,21259,281552,187426
1631106801528,21252,281622,187425
1631106801538,21266,281628,187442
1631106801548,21268,281636,187438
1631106801558,21276,281612,187422
1631106801568,21280,281635,187435
1631106801578,21287,281676,187426
1631106801588,21295,281631,187430
1631106801598,21304,281646,187428
1631106801608,21313,281670,187423
1631106801618,21319,281686,187444
1631106801628,21329,281673,187423
1631106801638,21343,281720,187454
1631106801648,21353,281717,187435
1631106801658,21366,281728,187449
1631106801668,21376,281754,187450
1631106801678,21384,281725,187470
1631106801688,21397,281743,187446
1631106801698,21416,281773,187420
1631106801708,21422,281814,187438
1631106801718,21437,281802,187446
1631106801728,21444,281834,187444
1631106801738,21457,281811,187462
1631106801748,21476,281820,187464
1631106801758,21487,281873,187444
1631106801768,21492,281826,187463
1631106801778,21506,281895,187465
1631106801788,21522,281862,187467
1631106801798,21537,281910,187465
1631106801808,21554,281915,187446
1631106801818,21561,281917,187459
1631106801828,21576,281946,187472
1631106801838,21600,281945,187473
1631106801848,21607,281975,187469
1631106801858,21618,282017,187456
1631106801868,21641,281979,187460
1631106801878,21637,282047,187472
1631106801888,21666,282015,187487
1631106801898,21666,282064,187470
1631106801908,21684,282064,187505
1631106801918,21700,282049,187487
1631106801928,21722,282092,187502
1631106801938,21725,282093,187467
1631106801948,21748,282089,187482
1631106801958,21757,282129,187509
1631106801968,21769,282173,187504
1631106801978,21781,282155,187504
1631106801988,21803,282218,187480
1631106801998,21813,282152,187496
1631106802008,21822,282217,187497
1631106802018,21831,282191,187501
1631106802028,21860,282264,187499
1631106802038,21863,282247,187508
1631106802048,21887,282273,187493
1631106802058,21894,282306,187518
1631106802068,21910,282315,187532
1631106802078,21925,282289,187528
1631106802088,21941,282296,187530
1631106802098,21953,282338,187536
1631106802108,21968,282361,187524
1631106802118,21974,282370,187536
1631106802128,22000,282404,187525
1631106802138,22006,282410,187544
1631106802148,22024,282449,187565
1631106802158,22042,282446,187583
1631106802168,22056,282472,187559
1631106802178,22054,282458,187595
1631106802188,22050,282471,187589
1631106802198,22033,282447,187595
1631106802208,22006,282443,187571
1631106802218,21964,282369,187562
1631106802228,21929,282280,187539
1631106802238,21879,282247,187501
1631106802248,21840,282214,187518
1631106802258,21802,282138,187472
1631106802268,21775,282141,187469
1631106802278,21740,282107,187475
1631106802288,21717,282067,187461
1631106802298,21696,282098,187435
1631106802308,21673,282068,187423
1631106802318,21656,282013,187410
1631106802328,21628,282013,187402
1631106802338,21611,281983,187408
1631106802348,21596,281950,187386
1631106802358,21566,281913,187373
1631106802368,21546,281922,187372
1631106802378,21527,281837,187354
1631106802388,21508,281852,187327
1631106802398,21495,281863,187314
1631106802408,21492,281850,187300
1631106802418,21480,281801,187301
1631106802428,21473,281779,187285
1631106802438,21468,281832,187304
1631106802448,21464,281786,187296
1631106802458,21464,281798,187252
1631106802468,21454,281783,187250
1631106802478,21446,281751,187239
1631106802488,21446,281716,187253
1631106802498,21441,281736,187226
1631106802508,21432,281696,187223
1631106802518,21431,281737,187242
1631106802528,21436,281705,187221
1631106802538,21423,281731,187239
1631106802548,21424,281731,187212
1631106802558,21427,281739,187200
1631106802568,21429,281732,187197
1631106802578,21430,281753,187223
1631106802588,21429,281718,187183
1631106802598,21433,281708,187194
1631106802608,21442,281719,187202
1631106802618,21445,281753,187206
1631106802628,21452,281790,187201
1631106802638,21460,281763,187234
1631106802648,21466,281810,187212
1631106802658,21483,281836,187230
1631106802668,21489,281831,187225
1631106802678,21497,281843,187228
1631106802688,21501,281827,187227
1631106802698,21512,281865,187230
1631106802708,21531,281887,187245
1631106802718,21536,281854,187261
1631106802728,21551,281885,187247
1631106802738,21565,281914,187255
1631106802748,21568,281931,187248
1631106802758,21589,281931,187265
1631106802768,21598,281953,187265
1631106802778,21611,281959,187273
1631106802788,21616,281961,187270
1631106802798,21630,282013,187276
1631106802808,21646,282031,187276
1631106802818,21656,282041,187279
1631106802828,21668,282037,187270
1631106802838,21683,282063,187292
1631106802848,21690,282060,187294
1631106802858,21710,282072,187295
1631106802868,21718,282086,187292
1631106802878,21730,282089,187305
1631106802888,21745,282108,187303
1631106802898,21755,282134,187317
1631106802908,21775,282155,187303
1631106802918,21786,282168,187310
1631106802928,21798,282160,187317
1631106802938,21810,282149,187318
1631106802948,21829,282206,187334
1631106802958,21840,282267,187329
1631106802968,21856,282248,187339
1631106802978,21876,282261,187342
1631106802988,21871,282258,187349
1631106802998,21899,282247,187347
1631106803008,21903,282276,187334
1631106803018,21930,282316,187348
1631106803028,21937,282308,187353
1631106803038,21955,282352,187333
1631106803048,21968,282370,187364
1631106803058,21980,282379,187384
1631106803068,21993,282389,187360
1631106803078,22000,282418,187344
1631106803088,22022,282418,187363
1631106803098,22034,282432,187381
1631106803108,22050,282468,187390
1631106803118,22064,282495,187392
1631106803128,22076,282462,187408
1631106803138,22096,282493,187359
1631106803148,22096,282495,187405
1631106803158,22111,282506,187397
1631106803168,22129,282510,187422
1631106803178,22141,282547,187403
1631106803188,22155,282595,187402
1631106803198,22171,282557,187391
1631106803208,22185,282610,187415
1631106803218,22201,282633,187398
1631106803228,22218,282650,187422
1631106803238,22232,282641,187437
1631106803248,22240,282698,187438
1631106803258,22250,282673,187449
1631106803268,22238,282670,187463
1631106803278,22221,282681,187464
1631106803288,22205,282669,187455
1631106803298,22161,282559,187452
1631106803308,22144,282589,187416
1631106803318,22096,282509,187399
1631106803328,22061,282459,187383
1631106803338,22021,282426,187398
1631106803348,21981,282408,187352
1631106803358,21952,282379,187353
1631106803368,21928,282356,187340
1631106803378,21907,282328,187332
1631106803388,21888,282275,187328
1631106803398,21867,282253,187318
1631106803408,21855,282288,187331
1631106803418,21838,282224,187290
1631106803428,21825,282216,187296
1631106803438,21806,282242,187314
1631106803448,21795,282204,187305
1631106803458,21775,282218,187293
1631106803468,21764,282171,187288
1631106803478,21750,282151,187271
1631106803488,21742,282223,187270
1631106803498,21743,282173,187272
1631106803508,21741,282166,187280
1631106803518,21737,282196,187296
1631106803528,21733,282184,187277
1631106803538,21740,282142,187266
1631106803548,21740,282182,187292
1631106803558,21725,282172,187272
1631106803568,21719,282134,187283
1631106803578,21715,282201,187286
1631106803588,21712,282179,187274
1631106803598,21710,282186,187280
1631106803608,21710,282201,187280
1631106803618,21705,282182,187284
1631106803628,21716,282185,187292
1631106803638,21711,282193,187297
1631106803648,21704,282201,187282
1631106803658,21718,282177,187266
1631106803668,21720,282210,187280
1631106803678,21715,282179,187277
1631106803688,21718,282170,187274
1631106803698,21725,282232,187291
1631106803708,21731,282219,187288
1631106803718,21736,282219,187284
1631106803728,21743,282229,187298
1631106803738,21753,282245,187292
1631106803748,21755,282215,187281
1631106803758,21761,282206,187286
1631106803768,21775,282256,187277
1631106803778,21778,282246,187269
1631106803788,21784,282249,187307
1631106803798,21793,282276,187270
1631106803808,21811,282270,187287
1631106803818,21819,282298,187271
1631106803828,21834,282319,187308
1631106803838,21842,282317,187283
1631106803848,21849,282297,187284
1631106803858,21855,282365,187302
1631106803868,21864,282317,187292
1631106803878,21880,282323,187298
1631106803888,21893,282359,187304
1631106803898,21900,282393,187302
1631106803908,21911,282389,187317
1631106803918,21919,282412,187303
1631106803928,21934,282405,187301
1631106803938,21947,282429,187315
1631106803948,21965,282455,187306
1631106803958,21969,282454,187320
1631106803968,21985,282471,187313
1631106803978,21985,282471,187329
1631106803988,22007,282485,187322
1631106803998,22015,282510,187318
1631106804008,22029,282522,187336
1631106804018,22042,282528,187336
1631106804028,22052,282518,187327
1631106804038,22063,282552,187332
1631106804048,22081,282617,187346
1631106804058,22093,282559,187356
1631106804068,22104,282611,187333
1631106804078,22119,282580,187339
1631106804088,22130,282625,187353
1631106804098,22142,282664,187342
1631106804108,22159,282662,187357
1631106804118,22172,282646,187357
1631106804128,22170,282665,187345
1631106804138,22194,282674,187342
1631106804148,22206,282706,187354
1631106804158,22215,282725,187354
1631106804168,22229,282743,187352
1631106804178,22238,282810,187346
1631106804188,22252,282761,187367
1631106804198,22261,282780,187369
1631106804208,22279,282743,187389
1631106804218,22295,282787,187366
1631106804228,22301,282828,187381
1631106804238,22319,282821,187369
1631106804248,22332,282831,187359
1631106804258,22350,282845,187371
1631106804268,22364,282890,187408
1631106804278,22368,282880,187425
1631106804288,22395,282910,187417
1631106804298,22392,282915,187429
1631106804308,22387,282917,187425
1631106804318,22372,282888,187444
1631106804328,22353,282919,187435
1631106804338,22327,282867,187421
1631106804348,22290,282851,187404
1631106804358,22264,282770,187394
1631106804368,22224,282745,187379
1631106804378,22190,282694,187350
1631106804388,22158,282633,187357
1631106804398,22130,282622,187340
1631106804408,22105,282614,187340
1631106804418,22089,282608,187308
1631106804428,22072,282607,187329
1631106804438,22051,282579,187324
1631106804448,22054,282597,187325
1631106804458,22026,282542,187332
1631106804468,22010,282576,187318
1631106804478,22005,282518,187289
1631106804488,21998,282523,187306
1631106804498,21989,282515,187304
1631106804508,21974,282505,187298
1631106804518,21968,282531,187277
1631106804528,21969,282515,187308
1631106804538,21962,282507,187301
1631106804548,21952,282517,187273
1631106804558,21955,282510,187295
1631106804568,21949,282493,187295
1631106804578,21942,282506,187266
1631106804588,21940,282519,187286
1631106804598,21937,282472,187294
1631106804608,21930,282509,187269
1631106804618,21913,282475,187270
1631106804628,21930,282463,187257
1631106804638,21911,282485,187268
1631106804648,21905,282487,187270
1631106804658,21904,282464,187275
1631106804668,21903,282448,187239
1631106804678,21902,282472,187241
1631106804688,21898,282419,187248
1631106804698,21904,282488,187260
1631106804708,21905,282450,187242
1631106804718,21902,282394,187254
1631106804728,21910,282495,187241
1631106804738,21911,282510,187243
1631106804748,21915,282469,187248
1631106804758,21925,282474,187237
1631106804768,21937,282474,187230
1631106804778,21929,282486,187256
1631106804788,21937,282510,187254
1631106804798,21937,282501,187266
1631106804808,21951,282490,187251
1631106804818,21962,282506,187254
1631106804828,21964,282494,187237
1631106804838,21972,282534,187241
1631106804848,21983,282529,187247
1631106804858,21985,282509,187272
1631106804868,22001,282534,187250
1631106804878,22004,282567,187242
1631106804888,22014,282566,187237
1631106804898,22023,282599,187243
1631106804908,22030,282576,187257
1631106804918,22048,282576,187237
1631106804928,22044,282602,187273
1631106804938,22067,282609,187257
1631106804948,22078,282610,187262
1631106804958,22079,282647,187245
1631106804968,22087,282647,187262
1631106804978,22098,282671,187259
1631106804988,22110,282721,187249
1631106804998,22112,282662,187254
1631106805008,22134,282681,187247
1631106805018,22143,282694,187249
1631106805028,22148,282706,187282
1631106805038,22165,282728,187259
1631106805048,22172,282754,187263
1631106805058,22183,282749,187257
1631106805068,22196,282763,187269
1631106805078,22208,282718,187276
1631106805088,22224,282757,187264
1631106805098,22236,282786,187276
1631106805108,22232,282777,187281
1631106805118,22253,282808,187254
1631106805128,22258,282782,187263
1631106805138,22272,282813,187272
1631106805148,22284,282854,187274
1631106805158,22291,282791,187293
1631106805168,22303,282853,187277
1631106805178,22322,282850,187266
1631106805188,22331,282887,187278
1631106805198,22340,282881,187277
1631106805208,22357,282892,187278
1631106805218,22362,282892,187282
1631106805228,22380,282944,187291
1631106805238,22391,282989,187321
1631106805248,22399,282954,187333
1631106805258,22400,282988,187336
1631106805268,22388,282975,187325
1631106805278,22370,282892,187324
1631106805288,22350,282915,187320
1631106805298,22308,282893,187285
1631106805308,22276,282830,187271
1631106805318,22232,282796,187253
1631106805328,22189,282747,187254
1631106805338,22150,282671,187267
1631106805348,22114,282668,187220
1631106805358,22082,282602,187211
1631106805368,22051,282622,187180
1631106805378,22025,282562,187195
1631106805388,22005,282540,187189
1631106805398,21999,282542,187182
1631106805408,21973,282495,187161
1631106805418,21955,282504,187184
1631106805428,21937,282489,187176
1631106805438,21927,282459,187154
1631106805448,21908,282435,187158
1631106805458,21889,282442,187114
1631106805468,21866,282415,187132
1631106805478,21853,282377,187116
1631106805488,21843,282375,187097
1631106805498,21829,282319,187108
1631106805508,21827,282337,187098
1631106805518,21814,282331,187099
1631106805528,21815,282333,187104
1631106805538,21804,282351,187085
1631106805548,21799,282315,187074
1631106805558,21788,282308,187076
1631106805568,21777,282284,187031
1631106805578,21761,282262,187056
1631106805588,21770,282293,187022
1631106805598,21763,282241,187029
1631106805608,21743,282209,187027
1631106805618,21742,282243,187004
1631106805628,21742,282217,187006
1631106805638,21740,282231,187020
1631106805648,21733,282228,187017
1631106805658,21737,282236,187005
1631106805668,21744,282228,187005
1631106805678,21737,282230,187015
1631106805688,21740,282212,186994
1631106805698,21741,282189,186992
1631106805708,21749,282218,186993
1631106805718,21755,282243,187004
1631106805728,21751,282228,186999
1631106805738,21765,282272,186999
1631106805748,21760,282266,186989
1631106805758,21775,282260,187006
1631106805768,21781,282239,186988
1631106805778,21790,282279,186989
1631106805788,21795,282260,186970
1631106805798,21802,282242,186986
1631106805808,21815,282302,186986
1631106805818,21816,282308,186976
1631106805828,21832,282286,186962
1631106805838,21831,282324,186974
1631106805848,21845,282285,186976
1631106805858,21856,282348,186993
1631106805868,21866,282285,186971
1631106805878,21874,282347,186976
1631106805888,21872,282317,186983
1631106805898,21891,282363,186987
1631106805908,21910,282370,186973
1631106805918,21928,282374,186975
1631106805928,21919,282391,186980
1631106805938,21931,282434,186972
1631106805948,21945,282425,186969
1631106805958,21953,282418,186980
1631106805968,21971,282413,186979
1631106805978,21982,282419,186958
1631106805988,21985,282442,186956
1631106805998,21997,282472,186972
1631106806008,22014,282459,186967
1631106806018,22024,282497,186957
1631106806028,22038,282494,186963
1631106806038,22044,282521,186963
1631106806048,22053,282514,186978
1631106806058,22069,282515,186975
1631106806068,22086,282565,186991
1631106806078,22102,282570,186978
1631106806088,22113,282599,187008
1631106806098,22118,282608,186997
1631106806108,22133,282621,187011
1631106806118,22146,282625,186988
1631106806128,22155,282636,186990
1631106806138,22167,282654,187011
1631106806148,22187,282610,187010
1631106806158,22190,282678,186995
1631106806168,22205,282672,187012
1631106806178,22223,282715,187009
1631106806188,22236,282700,187003
1631106806198,22251,282736,187031
1631106806208,22270,282755,187043
1631106806218,22289,282769,187074
1631106806228,22285,282780,187075
1631106806238,22287,282819,187097
1631106806248,22273,282759,187094
1631106806258,22235,282751,187076
1631106806268,22208,282703,187067
1631106806278,22163,282681,187032
1631106806288,22122,282589,187020
1631106806298,22077,282527,187004
1631106806308,22034,282528,186965
1631106806318,21987,282424,186987
1631106806328,21950,282412,186957
1631106806338,21916,282367,186942
1631106806348,21890,282342,186953
1631106806358,21863,282342,186925
1631106806368,21831,282296,186887
1631106806378,21807,282242,186914
1631106806388,21788,282287,186902
1631106806398,21781,282238,186884
1631106806408,21743,282183,186892
1631106806418,21725,282196,186875
1631106806428,21706,282152,186880
1631106806438,21680,282106,186850
1631106806448,21660,282092,186854
1631106806458,21642,282108,186836
1631106806468,21625,282096,186826
1631106806478,21620,282067,186839
1631106806488,21613,282055,186850
1631106806498,21610,282064,186811
1631106806508,21602,282060,186825
1631106806518,21597,282032,186836
1631106806528,21592,282016,186825
1631106806538,21588,282028,186807
1631106806548,21579,282027,186831
1631106806558,21571,282011,186813
1631106806568,21573,282008,186813
1631106806578,21562,282018,186801
1631106806588,21551,281976,186790
1631106806598,21551,281952,186772
1631106806608,21549,281957,186794
1631106806618,21545,281971,186781
1631106806628,21543,281959,186765
1631106806638,21546,281968,186778
1631106806648,21545,281956,186770
1631106806658,21545,281942,186797
1631106806668,21547,281936,186763
1631106806678,21552,281961,186806
1631106806688,21557,281907,186775
1631106806698,21555,281984,186774
1631106806708,21561,281980,186798
1631106806718,21577,281976,186775
1631106806728,21587,281950,186779
1631106806738,21594,282006,186795
1631106806748,21604,282020,186788
1631106806758,21604,282002,186799
1631106806768,21615,282018,186795
1631106806778,21625,282054,186815
1631106806788,21633,282058,186801
1631106806798,21638,282009,186827
1631106806808,21649,282069,186825
1631106806818,21660,282094,186810
1631106806828,21671,282067,186821
1631106806838,21684,282106,186816
1631106806848,21692,282085,186833
1631106806858,21706,282119,186827
1631106806868,21719,282131,186822
1631106806878,21718,282108,186829
1631106806888,21744,282164,186818
1631106806898,21746,282149,186832
1631106806908,21757,282177,186834
1631106806918,21768,282166,186851
1631106806928,21783,282161,186844
1631106806938,21794,282196,186824
1631106806948,21806,282205,186854
1631106806958,21825,282236,186848
1631106806968,21838,282215,186838
1631106806978,21846,282226,186866
1631106806988,21858,282267,186842
1631106806998,21872,282284,186876
1631106807008,21885,282274,186873
1631106807018,21899,282304,186886
1631106807028,21907,282319,186854
1631106807038,21922,282339,186883
1631106807048,21935,282350,186860
1631106807058,21956,282351,186892
1631106807068,21958,282334,186892
1631106807078,21978,282364,186884
1631106807088,21983,282397,186889
1631106807098,22000,282361,186895
1631106807108,22013,282408,186909
1631106807118,22027,282418,186909
1631106807128,22033,282364,186887
1631106807138,22052,282395,186879
1631106807148,22064,282419,186910
1631106807158,22078,282368,186892
1631106807168,22093,282328,186872
1631106807178,22101,282375,186862
1631106807188,22116,282334,186843
1631106807198,22132,282290,186847
1631106807208,22158,282247,186844
1631106807218,22160,282271,186842
1631106807228,22184,282253,186849
1631106807238,22199,282239,186876
1631106807248,22201,282239,186828
1631106807258,22199,282227,186850
1631106807268,22184,282212,186845
1631106807278,22159,282178,186844
1631106807288,22125,282120,186831
1631106807298,22075,282069,186834
1631106807308,22031,282009,186812
1631106807318,21985,281977,186791
1631106807328,21945,281928,186793
1631106807338,21907,281864,186791
1631106807348,21869,281831,186767
1631106807358,21845,281808,186739
1631106807368,21816,281824,186753
1631106807378,21792,281778,186733
1631106807388,21769,281762,186748
1631106807398,21744,281793,186762
1631106807408,21723,281750,186745
1631106807418,21709,281737,186725
1631106807428,21687,281727,186745
1631106807438,21656,281665,186752
1631106807448,21644,281680,186717
1631106807458,21622,281633,186721
1631106807468,21606,281661,186736
1631106807478,21591,281598,186701
1631106807488,21575,281603,186704
1631106807498,21576,281592,186699
1631106807508,21551,281585,186686
1631106807518,21562,281586,186704
1631106807528,21542,281561,186706
1631106807538,21542,281562,186716
1631106807548,21529,281557,186695
1631106807558,21522,281542,186698
1631106807568,21514,281522,186671
1631106807578,21509,281516,186692
1631106807588,21501,281483,186664
1631106807598,21489,281494,186673
1631106807608,21483,281475,186680
1631106807618,21481,281476,186658
1631106807628,21484,281460,186669
1631106807638,21475,281499,186672
1631106807648,21473,281454,186666
1631106807658,21471,281464,186655
1631106807668,21466,281463,186656
1631106807678,21475,281468,186658
1631106807688,21489,281478,186688
1631106807698,21486,281505,186670
1631106807708,21495,281469,186670
1631106807718,21492,281525,186687
1631106807728,21499,281495,186670
1631106807738,21509,281525,186692
1631106807748,21514,281521,186677
1631106807758,21519,281582,186700
1631106807768,21532,281571,186705
1631106807778,21538,281653,186711
1631106807788,21551,281640,186720
1631106807798,21560,281681,186736
1631106807808,21565,281701,186765
1631106807818,21576,281698,186754
1631106807828,21591,281686,186777
1631106807838,21599,281773,186783
1631106807848,21620,281808,186820
1631106807858,21631,281788,186787
1631106807868,21645,281840,186805
1631106807878,21653,281841,186821
1631106807888,21657,281850,186819
1631106807898,21672,281909,186865
1631106807908,21685,281933,186844
1631106807918,21689,281984,186871
1631106807928,21706,281953,186896
1631106807938,21713,282005,186875
1631106807948,21729,281993,186913
1631106807958,21742,282077,186910
1631106807968,21752,282057,186908
1631106807978,21762,282121,186921
1631106807988,21779,282096,186929
1631106807998,21798,282149,186948
1631106808008,21799,282139,186955
1631106808018,21818,282184,186976
1631106808028,21833,282224,186948
1631106808038,21840,282211,186965
1631106808048,21859,282238,186949
1631106808058,21864,282251,186990
1631106808068,21880,282263,186988
1631106808078,21894,282316,187004
1631106808088,21912,282326,187006
1631106808098,21921,282381,187004
1631106808108,21935,282385,187015
1631106808118,21944,282444,187024
1631106808128,21960,282423,187004
1631106808138,21976,282431,187046
1631106808148,21985,282474,187032
1631106808158,22005,282505,187045
1631106808168,22010,282519,187062
1631106808178,22018,282546,187062
1631106808188,22037,282595,187077
1631106808198,22062,282537,187088
1631106808208,22072,282574,187072
1631106808218,22081,282612,187076
1631106808228,22099,282625,187088
1631106808238,22111,282669,187090
1631106808248,22131,282656,187112
1631106808258,22144,282720,187134
1631106808268,22157,282724,187146
1631106808278,22162,282772,187144
1631106808288,22152,282761,187143
1631106808298,22131,282713,187143
1631106808308,22113,282705,187092
1631106808318,22078,282647,187097
1631106808328,22022,282591,187081
1631106808338,21974,282512,187069
1631106808348,21935,282522,187046
1631106808358,21888,282437,187070
1631106808368,21851,282423,187046
1631106808378,21816,282416,187017
1631106808388,21788,282389,187013
1631106808398,21768,282314,187022
1631106808408,21747,282340,187001
1631106808418,21728,282328,187014
1631106808428,21705,282318,187005
1631106808438,21692,282309,187003
1631106808448,21672,282228,187003
1631106808458,21654,282245,186988
1631106808468,21632,282259,187020
1631106808478,21614,282227,186961
1631106808488,21604,282197,186967
1631106808498,21585,282156,186981
1631106808508,21568,282155,186950
1631106808518,21564,282199,186953
1631106808528,21559,282174,186945
1631106808538,21554,282140,186963
1631106808548,21548,282182,186948
1631106808558,21549,282166,186968
1631106808568,21537,282123,186964
1631106808578,21537,282146,186962
1631106808588,21527,282147,186958
1631106808598,21528,282117,186954
1631106808608,21517,282153,186963
1631106808618,21513,282145,186943
1631106808628,21512,282131,186939
1631106808638,21505,282142,186947
1631106808648,21501,282127,186942
1631106808658,21500,282100,186927
1631106808668,21503,282119,186931
1631106808678,21489,282116,186933
1631106808688,21498,282147,186930
1631106808698,21511,282149,186924
1631106808708,21510,282163,186953
1631106808718,21514,282137,186930
1631106808728,21513,282146,186951
1631106808738,21527,282172,186939
1631106808748,21536,282211,186961
1631106808758,21537,282185,186960
1631106808768,21546,282190,186975
1631106808778,21555,282183,186963
1631106808788,21564,282182,186970
1631106808798,21568,282237,186981
1631106808808,21571,282216,186971
1631106808818,21596,282222,186962
1631106808828,21607,282221,186967
1631106808838,21608,282272,186966
1631106808848,21619,282240,186971
1631106808858,21626,282282,186973
1631106808868,21637,282289,186987
1631106808878,21651,282265,186995
1631106808888,21666,282271,187003
1631106808898,21665,282308,186982
1631106808908,21682,282324,187001
1631106808918,21697,282305,186999
1631106808928,21702,282338,186993
1631106808938,21719,282396,186989
1631106808948,21730,282353,186996
1631106808958,21737,282346,187012
1631106808968,21755,282364,187006
1631106808978,21761,282378,187006
1631106808988,21783,282425,187025
1631106808998,21787,282450,187011
1631106809008,21805,282413,187013
1631106809018,21816,282410,187020
1631106809028,21830,282424,187021
1631106809038,21845,282468,187021
1631106809048,21858,282466,187026
1631106809058,21864,282502,187031
1631106809068,21888,282495,187044
1631106809078,21898,282516,187047
1631106809088,21909,282531,187045
1631106809098,21922,282518,187040
1631106809108,21933,282554,187041
1631106809118,21953,282562,187055
1631106809128,21957,282582,187029
1631106809138,21968,282531,187076
1631106809148,21978,282572,187047
1631106809158,22010,282611,187064
1631106809168,22018,282621,187061
1631106809178,22033,282616,187053
1631106809188,22046,282657,187076
1631106809198,22059,282656,187080
1631106809208,22073,282655,187101
1631106809218,22080,282692,187066
1631106809228,22103,282680,187073
1631106809238,22120,282684,187085
1631106809248,22128,282757,187076
1631106809258,22147,282741,187095
1631106809268,22161,282763,187075
1631106809278,22171,282765,187076
1631106809288,22191,282752,187123
1631106809298,22195,282795,187107
1631106809308,22214,282798,187127
1631106809318,22238,282804,187157
1631106809328,22245,282837,187146
1631106809338,22249,282852,187140
1631106809348,22241,282833,187137
1631106809358,22221,282835,187131
1631106809368,22201,282815,187113
1631106809378,22166,282736,187093
1631106809388,22120,282695,187087
1631106809398,22082,282667,187056
1631106809408,22037,282576,187050
1631106809418,21991,282553,187050
1631106809428,21953,282503,187003
1631106809438,21916,282507,187017
1631106809448,21889,282457,186991
1631106809458,21859,282436,186993
1631106809468,21832,282369,186996
1631106809478,21807,282391,186992
1631106809488,21800,282325,186972
1631106809498,21791,282369,186954
1631106809508,21765,282316,186970
1631106809518,21749,282311,186964
1631106809528,21726,282268,186936
1631106809538,21713,282253,186962
1631106809548,21695,282245,186937
1631106809558,21684,282244,186929
1631106809568,21667,282237,186931
1631106809578,21663,282231,186910
1631106809588,21658,282213,186920
1631106809598,21653,282178,186922
1631106809608,21660,282173,186911
1631106809618,21648,282184,186917
1631106809628,21639,282164,186902
1631106809638,21618,282177,186916
1631106809648,21621,282128,186892
1631106809658,21614,282145,186892
1631106809668,21614,282144,186879
1631106809678,21600,282086,186894
1631106809688,21593,282103,186862
1631106809698,21589,282073,186872
1631106809708,21589,282066,186890
1631106809718,21582,282071,186852
1631106809728,21584,282067,186870
1631106809738,21584,282081,186862
1631106809748,21582,282043,186863
1631106809758,21582,282031,186853
1631106809768,21589,282050,186866
1631106809778,21593,282023,186888
1631106809788,21596,282068,186846
1631106809798,21607,282045,186876
1631106809808,21606,282122,186869
1631106809818,21600,282096,186872
1631106809828,21620,282043,186867
1631106809838,21625,282072,186847
1631106809848,21633,282086,186872
1631106809858,21639,282073,186846
1631106809868,21647,282122,186866
1631106809878,21661,282087,186890
1631106809888,21671,282094,186867
1631106809898,21679,282129,186900
1631106809908,21689,282126,186881
1631106809918,21695,282184,186884
1631106809928,21708,282217,186898
1631106809938,21715,282198,186884
1631106809948,21731,282198,186908
1631106809958,21731,282169,186889
1631106809968,21751,282217,186908
1631106809978,21758,282267,186893
1631106809988,21773,282221,186902
1631106809998,21785,282250,186918
1631106810008,21796,282276,186899
1631106810018,21810,282260,186907
1631106810028,21822,282280,186906
1631106810038,21837,282291,186924
1631106810048,21841,282299,186895
1631106810058,21853,282306,186919
1631106810068,21871,282317,186957
1631106810078,21884,282339,186945
1631106810088,21893,282341,186937
1631106810098,21912,282338,186960
1631106810108,21928,282384,186911
1631106810118,21943,282354,186937
1631106810128,21948,282400,186960
1631106810138,21962,282398,186952
1631106810148,21968,282419,186937
1631106810158,21982,282425,186940
1631106810168,22000,282452,186952
1631106810178,22009,282462,186933
1631106810188,22026,282442,186962
1631106810198,22040,282483,186969
1631106810208,22055,282509,186949
1631106810218,22067,282479,186978
1631106810228,22080,282505,186974
1631106810238,22091,282507,186971
1631106810248,22100,282530,186981
1631106810258,22109,282527,186972
1631106810268,22136,282565,186985
1631106810278,22150,282567,186976
1631106810288,22160,282563,186985
1631106810298,22168,282620,187002
1631106810308,22177,282620,187016
1631106810318,22196,282618,186995
1631106810328,22210,282687,186998
1631106810338,22222,282644,187006
1631106810348,22238,282645,187020
1631106810358,22253,282677,187015
1631106810368,22265,282684,187005
1631106810378,22276,282722,187013
1631106810388,22290,282736,187040
1631106810398,22307,282730,187025
1631106810408,22317,282771,187058
1631106810418,22319,282786,187086
1631106810428,22319,282753,187033
1631106810438,22305,282749,187039
1631106810448,22277,282735,187016
1631106810458,22241,282694,187006
1631106810468,22201,282649,187000
1631106810478,22153,282567,186966
1631106810488,22108,282516,186951
1631106810498,22062,282453,186956
1631106810508,22023,282440,186923
1631106810518,21993,282343,186934
1631106810528,21960,282358,186931
1631106810538,21935,282344,186921
1631106810548,21904,282329,186899
1631106810558,21883,282307,186895
1631106810568,21866,282288,186904
1631106810578,21851,282292,186893
1631106810588,21839,282220,186871
1631106810598,21814,282255,186871
1631106810608,21790,282188,186849
1631106810618,21780,282192,186857
1631106810628,21759,282158,186840
1631106810638,21745,282148,186817
1631106810648,21735,282118,186824
1631106810658,21727,282173,186830
1631106810668,21719,282119,186820
1631106810678,21717,282138,186812
1631106810688,21709,282118,186836
1631106810698,21701,282094,186825
1631106810708,21692,282077,186811
1631106810718,21691,282067,186806
1631106810728,21678,282102,186829
1631106810738,21673,282069,186825
1631106810748,21663,282032,186814
1631106810758,21652,282025,186806
1631106810768,21651,282034,186795
1631106810778,21650,282033,186788
1631106810788,21656,282037,186806
1631106810798,21639,282053,186789
1631106810808,21642,282030,186765
1631106810818,21637,282014,186784
1631106810828,21636,282010,186760
1631106810838,21638,282008,186771
1631106810848,21635,282006,186774
1631106810858,21647,281980,186765
1631106810868,21644,282013,186776
1631106810878,21649,282042,186778
1631106810888,21657,282006,186770
1631106810898,21667,282018,186791
1631106810908,21675,282001,186802
1631106810918,21677,282018,186787
1631106810928,21681,282045,186786
1631106810938,21689,282070,186795
1631106810948,21697,282059,186786
1631106810958,21704,282108,186777
1631106810968,21710,282047,186806
1631106810978,21721,282051,186806
1631106810988,21731,282117,186808
1631106810998,21745,282121,186808
1631106811008,21752,282111,186802
1631106811018,21760,282127,186813
1631106811028,21769,282104,186796
1631106811038,21785,282147,186792
1631106811048,21796,282093,186818
1631106811058,21803,282122,186836
1631106811068,21814,282146,186815
1631106811078,21826,282176,186815
1631106811088,21825,282209,186814
1631106811098,21847,282161,186830
1631106811108,21860,282215,186854
1631106811118,21868,282240,186829
1631106811128,21882,282227,186845
1631106811138,21888,282223,186866
1631106811148,21904,282241,186847
1631106811158,21919,282273,186863
1631106811168,21930,282296,186853
1631106811178,21936,282337,186859
1631106811188,21954,282277,186852
1631106811198,21966,282294,186876
1631106811208,21977,282335,186863
1631106811218,21990,282349,186859
1631106811228,21997,282370,186882
1631106811238,22020,282335,186894
1631106811248,22024,282366,186886
1631106811258,22036,282394,186890
1631106811268,22060,282417,186885
1631106811278,22065,282447,186882
1631106811288,22078,282449,186902
1631106811298,22087,282495,186902
1631106811308,22102,282462,186899
1631106811318,22116,282462,186896
1631106811328,22136,282513,186920
1631106811338,22144,282512,186905
1631106811348,22160,282539,186914
1631106811358,22171,282550,186930
1631106811368,22185,282570,186916
1631106811378,22199,282557,186916
1631106811388,22215,282593,186908
1631106811398,22232,282579,186926
1631106811408,22234,282616,186947
1631106811418,22248,282607,186929
1631106811428,22261,282628,186939
1631106811438,22286,282636,186935
1631106811448,22298,282632,186952
1631106811458,22308,282699,186976
1631106811468,22324,282683,186963
1631106811478,22335,282775,186976
1631106811488,22349,282795,187013
1631106811498,22342,282740,186987
1631106811508,22332,282759,186993
1631106811518,22304,282744,186997
1631106811528,22277,282681,186956
1631106811538,22239,282588,186949
1631106811548,22190,282558,186941
1631106811558,22140,282541,186906
1631106811568,22110,282481,186888
1631106811578,22052,282421,186872
1631106811588,22016,282330,186864
1631106811598,21985,282360,186862
1631106811608,21952,282323,186846
1631106811618,21932,282286,186825
1631106811628,21909,282255,186854
1631106811638,21887,282268,186830
1631106811648,21871,282207,186842
1631106811658,21851,282180,186836
1631106811668,21830,282178,186838
1631106811678,21814,282167,186795
1631106811688,21792,282157,186791
1631106811698,21776,282137,186786
1631106811708,21769,282150,186799
1631106811718,21737,282089,186774
1631106811728,21736,282121,186794
1631106811738,21725,282096,186776
1631106811748,21719,282074,186789
1631106811758,21714,282123,186781
1631106811768,21714,282050,186757
1631106811778,21706,281993,186754
1631106811788,21692,282088,186770
1631106811798,21690,282034,186763
1631106811808,21684,282025,186756
1631106811818,21674,282018,186753
1631106811828,21668,282031,186737
1631106811838,21656,282014,186730
1631106811848,21656,281967,186733
1631106811858,21646,281979,186726
1631106811868,21645,281967,186724
1631106811878,21649,281963,186734
1631106811888,21626,281969,186746
1631106811898,21637,281912,186697
1631106811908,21645,281951,186730
1631106811918,21642,281978,186723
1631106811928,21646,281950,186730
1631106811938,21649,281987,186712
1631106811948,21645,281981,186693
1631106811958,21651,281968,186725
1631106811968,21659,281950,186721
1631106811978,21662,282006,186743
1631106811988,21668,282008,186708
1631106811998,21678,282006,186715
1631106812008,21676,281995,186738
1631106812018,21689,282008,186741
1631106812028,21693,282068,186741
1631106812038,21703,282010,186740
1631106812048,21708,282036,186724
1631106812058,21730,282055,186741
1631106812068,21726,282036,186730
1631106812078,21747,282082,186722
1631106812088,21746,282075,186744
1631106812098,21758,282042,186751
1631106812108,21762,282062,186732
1631106812118,21779,282124,186741
1631106812128,21786,282117,186744
1631106812138,21794,282108,186755
1631106812148,21800,282087,186758
1631106812158,21814,282130,186777
1631106812168,21823,282142,186756
1631106812178,21834,282124,186768
1631106812188,21845,282146,186759
1631106812198,21854,282160,186778
1631106812208,21860,282200,186784
1631106812218,21873,282194,186758
1631106812228,21892,282206,186771
1631106812238,21887,282245,186790
1631106812248,21921,282216,186791
1631106812258,21925,282234,186790
1631106812268,21934,282235,186769
1631106812278,21945,282257,186791
1631106812288,21962,282281,186815
1631106812298,21974,282317,186801
1631106812308,21982,282302,186794
1631106812318,21992,282315,186808
1631106812328,22006,282324,186800
1631106812338,22017,282347,186811
1631106812348,22035,282328,186804
1631106812358,22045,282363,186816
1631106812368,22060,282362,186813
1631106812378,22054,282404,186815
1631106812388,22079,282405,186805
1631106812398,22092,282411,186818
1631106812408,22110,282426,186838
1631106812418,22119,282410,186836
1631106812428,22137,282448,186850
1631106812438,22150,282460,186850
1631106812448,22162,282525,186834
1631106812458,22175,282517,186865
1631106812468,22189,282525,186861
1631106812478,22201,282511,186884
1631106812488,22212,282521,186853
1631106812498,22223,282572,186873
1631106812508,22242,282576,186860
1631106812518,22259,282602,186887
1631106812528,22275,282605,186851
1631106812538,22278,282629,186879
1631106812548,22304,282661,186912
1631106812558,22303,282695,186922
1631106812568,22298,282663,186931
1631106812578,22283,282659,186902
1631106812588,22261,282603,186898
1631106812598,22225,282597,186884
1631106812608,22183,282565,186870
1631106812618,22141,282446,186847
1631106812628,22089,282436,186840
1631106812638,22051,282347,186822
1631106812648,22005,282290,186783
1631106812658,21973,282255,186793
1631106812668,21938,282228,186766
1631106812678,21913,282243,186787
1631106812688,21879,282172,186781
1631106812698,21872,282204,186763
1631106812708,21843,282159,186752
1631106812718,21831,282127,186772
1631106812728,21812,282153,186775
1631106812738,21794,282078,186753
1631106812748,21774,282113,186739
1631106812758,21756,282086,186717
1631106812768,21737,282055,186721
1631106812778,21726,282020,186719
1631106812788,21715,282037,186717
1631106812798,21697,281990,186719
1631106812808,21697,282008,186731
1631106812818,21694,281983,186688
1631106812828,21686,282002,186712
1631106812838,21683,282005,186718
1631106812848,21673,281957,186724
1631106812858,21655,281977,186711
1631106812868,21659,281971,186696
1631106812878,21647,281954,186700
1631106812888,21650,281968,186690
1631106812898,21631,281930,186699
1631106812908,21621,281935,186695
1631106812918,21620,281931,186675
1631106812928,21616,281895,186671
1631106812938,21609,281898,186650
1631106812948,21611,281891,186694
1631106812958,21604,281927,186639
1631106812968,21611,281926,186677
1631106812978,21607,281918,186656
1631106812988,21612,281903,186668
1631106812998,21614,281896,186655
1631106813008,21619,281941,186672
1631106813018,21617,281923,186671
1631106813028,21627,281919,186679
1631106813038,21629,281941,186678
1631106813048,21643,281933,186668
1631106813058,21643,281931,186668
1631106813068,21635,281947,186676
1631106813078,21663,281965,186678
1631106813088,21672,281977,186696
1631106813098,21678,281971,186686
1631106813108,21688,281984,186694
1631106813118,21684,281997,186695
1631106813128,21705,282007,186699
1631106813138,21710,282027,186709
1631106813148,21719,282017,186714
1631106813158,21734,282060,186709
1631106813168,21741,282073,186702
1631106813178,21765,282075,186717
1631106813188,21763,282069,186726
1631106813198,21767,282082,186724
1631106813208,21786,282089,186720
1631106813218,21793,282095,186726
1631106813228,21802,282096,186736
1631106813238,21813,282114,186730
1631106813248,21823,282124,186730
1631106813258,21834,282109,186739
1631106813268,21849,282160,186751
1631106813278,21854,282175,186722
1631106813288,21865,282161,186723
1631106813298,21878,282176,186738
1631106813308,21890,282233,186764
1631106813318,21902,282192,186763
1631106813328,21917,282201,186751
1631106813338,21929,282274,186764
1631106813348,21942,282255,186748
1631106813358,21948,282253,186768
1631106813368,21966,282281,186768
1631106813378,21972,282316,186782
1631106813388,21984,282307,186778
1631106813398,21998,282322,186799
1631106813408,22010,282317,186788
1631106813418,22024,282324,186798
1631106813428,22043,282329,186792
1631106813438,22049,282341,186790
1631106813448,22067,282372,186806
1631106813458,22074,282362,186806
1631106813468,22086,282397,186812
1631106813478,22101,282433,186835
1631106813488,22110,282427,186817
1631106813498,22121,282456,186828
1631106813508,22141,282456,186822
1631106813518,22156,282473,186824
1631106813528,22164,282503,186825
1631106813538,22178,282488,186823
1631106813548,22194,282561,186827
1631106813558,22214,282556,186854
1631106813568,22223,282582,186855
1631106813578,22238,282562,186865
1631106813588,22255,282635,186880
1631106813598,22260,282622,186897
1631106813608,22256,282651,186876
1631106813618,22239,282596,186892
1631106813628,22219,282584,186891
1631106813638,22184,282559,186852
1631106813648,22138,282505,186837
1631106813658,22100,282465,186822
1631106813668,22050,282351,186795
1631106813678,22013,282371,186785
1631106813688,21971,282299,186801
1631106813698,21927,282272,186785
1631106813708,21892,282244,186778
1631106813718,21867,282214,186761
1631106813728,21842,282170,186746
1631106813738,21818,282184,186758
1631106813748,21804,282142,186774
1631106813758,21779,282127,186743
1631106813768,21768,282123,186736
1631106813778,21748,282102,186730
1631106813788,21736,282077,186729
1631106813798,21715,282068,186718
1631106813808,21700,282022,186717
1631106813818,21686,282032,186695
1631106813828,21677,282030,186670
1631106813838,21668,281979,186697
1631106813848,21664,281978,186702
1631106813858,21659,281989,186690
1631106813868,21653,281996,186692
1631106813878,21646,281998,186696
1631106813888,21643,281959,186685
1631106813898,21638,281991,186690
1631106813908,21629,281943,186660
1631106813918,21627,281941,186692
1631106813928,21619,281934,186668
1631106813938,21609,281960,186650
1631106813948,21605,281947,186669
1631106813958,21599,281932,186648
1631106813968,21597,281960,186663
1631106813978,21592,281918,186666
1631106813988,21595,281897,186679
1631106813998,21599,281912,186656
1631106814008,21604,281905,186675
1631106814018,21605,281934,186677
1631106814028,21605,281929,186691
1631106814038,21608,281898,186674
1631106814048,21618,281936,186679
1631106814058,21622,281938,186692
1631106814068,21625,281978,186691
1631106814078,21635,281949,186700
1631106814088,21638,281967,186701
1631106814098,21646,281923,186704
1631106814108,21649,281977,186688
1631106814118,21658,281953,186688
1631106814128,21663,281926,186706
1631106814138,21664,281949,186677
1631106814148,21684,281975,186688
1631106814158,21698,281954,186667
1631106814168,21698,281952,186676
1631106814178,21703,281983,186647
1631106814188,21718,282023,186686
1631106814198,21725,282038,186684
1631106814208,21736,282016,186676
1631106814218,21751,282022,186671
1631106814228,21756,282080,186659
1631106814238,21771,282069,186674
1631106814248,21778,282057,186684
1631106814258,21793,282072,186691
1631106814268,21807,282076,186664
1631106814278,21815,282132,186699
1631106814288,21823,282115,186699
1631106814298,21837,282119,186702
1631106814308,21854,282119,186710
1631106814318,21859,282172,186717
1631106814328,21880,282155,186712
1631106814338,21890,282190,186743
1631106814348,21908,282236,186732
1631106814358,21919,282249,186754
1631106814368,21933,282217,186753
1631106814378,21947,282264,186757
1631106814388,21957,282272,186771
1631106814398,21972,282288,186771
1631106814408,21987,282310,186775
1631106814418,21994,282332,186797
1631106814428,22012,282365,186790
1631106814438,22030,282320,186795
1631106814448,22038,282360,186792
1631106814458,22045,282342,186811
1631106814468,22057,282430,186798
1631106814478,22066,282403,186809
1631106814488,22069,282457,186802
1631106814498,22097,282454,186803
1631106814508,22106,282462,186813
1631106814518,22117,282437,186819
1631106814528,22130,282487,186838
1631106814538,22142,282520,186817
1631106814548,22154,282536,186809
1631106814558,22168,282576,186830
1631106814568,22181,282536,186824
1631106814578,22197,282556,186845
1631106814588,22207,282592,186859
1631106814598,22225,282645,186863
1631106814608,22236,282590,186863
1631106814618,22238,282653,186867
1631106814628,22230,282630,186887
1631106814638,22224,282611,186874
1631106814648,22196,282582,186884
1631106814658,22151,282550,186842
1631106814668,22128,282506,186829
1631106814678,22081,282472,186838
1631106814688,22032,282387,186816
1631106814698,21990,282398,186814
1631106814708,21951,282278,186777
1631106814718,21914,282285,186765
1631106814728,21884,282232,186767
1631106814738,21857,282215,186756
1631106814748,21839,282223,186745
1631106814758,21821,282167,186748
1631106814768,21806,282187,186734
1631106814778,21794,282136,186711
1631106814788,21775,282106,186711
1631106814798,21768,282071,186706
1631106814808,21746,282123,186696
1631106814818,21732,282082,186689
1631106814828,21718,282089,186701
1631106814838,21707,282073,186683
1631106814848,21702,282093,186671
1631106814858,21695,282016,186684
1631106814868,21696,282061,186670
1631106814878,21685,282005,186660
1631106814888,21686,282058,186670
1631106814898,21676,282032,186675
1631106814908,21677,282013,186666
1631106814918,21666,282016,186669
1631106814928,21657,281965,186649
1631106814938,21650,281967,186647
1631106814948,21655,281981,186644
1631106814958,21643,281975,186654
1631106814968,21631,281968,186647
1631106814978,21631,281969,186652
1631106814988,21617,281942,186646
1631106814998,21625,281966,186621
1631106815008,21623,281940,186636
1631106815018,21622,281994,186640
1631106815028,21627,281958,186651
1631106815038,21619,281914,186633
1631106815048,21632,281962,186640
1631106815058,21634,281953,186634
1631106815068,21639,281966,186651
1631106815078,21641,282005,186635
1631106815088,21647,282005,186642
1631106815098,21652,282011,186620
1631106815108,21666,281985,186650
1631106815118,21655,282010,186646
1631106815128,21664,281989,186669
1631106815138,21680,281989,186638
1631106815148,21687,282053,186648
1631106815158,21697,282055,186662
1631106815168,21703,282019,186659
1631106815178,21710,282021,186672
1631106815188,21714,282057,186662
1631106815198,21730,282020,186675
1631106815208,21733,282062,186654
1631106815218,21743,282079,186674
1631106815228,21754,282115,186678
1631106815238,21757,282129,186679
1631106815248,21776,282085,186692
1631106815258,21781,282121,186679
1631106815268,21795,282137,186689
1631106815278,21798,282142,186682
1631106815288,21810,282214,186686
1631106815298,21820,282250,186698
1631106815308,21832,282237,186712
1631106815318,21834,282245,186707
1631106815328,21847,282209,186692
1631106815338,21855,282202,186727
1631106815348,21867,282224,186726
1631106815358,21872,282278,186694
1631106815368,21886,282242,186714
1631106815378,21902,282314,186736
1631106815388,21909,282296,186737
1631106815398,21920,282362,186734
1631106815408,21929,282336,186729
1631106815418,21935,282305,186725
1631106815428,21951,282364,186747
1631106815438,21959,282377,186756
1631106815448,21978,282406,186773
1631106815458,21978,282406,186753
1631106815468,21990,282376,186767
1631106815478,22005,282386,186747
1631106815488,22012,282410,186770
1631106815498,22025,282405,186770
1631106815508,22036,282474,186761
1631106815518,22046,282479,186776
1631106815528,22054,282489,186786
1631106815538,22073,282482,186799
1631106815548,22078,282515,186809
1631106815558,22093,282543,186833
1631106815568,22083,282564,186803
1631106815578,22068,282526,186811
1631106815588,22058,282517,186780
1631106815598,22018,282443,186769
1631106815608,21963,282407,186759
1631106815618,21919,282389,186755
1631106815628,21882,282285,186720
1631106815638,21822,282249,186725
1631106815648,21780,282231,186697
1631106815658,21735,282164,186692
1631106815668,21703,282125,186667
1631106815678,21670,282094,186678
1631106815688,21633,282073,186663
1631106815698,21621,282038,186651
1631106815708,21592,282000,186632
1631106815718,21571,282005,186626
1631106815728,21552,281984,186650
1631106815738,21527,281980,186629
1631106815748,21517,281957,186590
1631106815758,21481,281906,186629
1631106815768,21480,281906,186580
1631106815778,21450,281883,186583
1631106815788,21430,281840,186583
1631106815798,21424,281847,186578
1631106815808,21419,281847,186589
1631106815818,21405,281836,186568
1631106815828,21407,281797,186571
1631106815838,21404,281773,186576
1631106815848,21388,281798,186564
1631106815858,21387,281804,186576
1631106815868,21375,281783,186578
1631106815878,21370,281759,186560
1631106815888,21359,281786,186546
1631106815898,21352,281795,186546
1631106815908,21344,281718,186550
1631106815918,21339,281726,186532
1631106815928,21341,281716,186550
1631106815938,21334,281710,186551
1631106815948,21330,281701,186531
1631106815958,21321,281688,186522
1631106815968,21325,281731,186535
1631106815978,21330,281693,186533
1631106815988,21330,281712,186549
1631106815998,21332,281725,186525
1631106816008,21339,281700,186556
1631106816018,21343,281753,186546
1631106816028,21344,281717,186544
1631106816038,21355,281721,186534
1631106816048,21365,281745,186551
1631106816058,21366,281733,186549
1631106816068,21373,281770,186539
1631106816078,21371,281725,186548
1631106816088,21388,281790,186537
1631106816098,21395,281767,186552
1631106816108,21415,281767,186566
1631106816118,21417,281743,186568
1631106816128,21422,281782,186574
1631106816138,21439,281769,186545
1631106816148,21442,281802,186574
1631106816158,21456,281815,186567
1631106816168,21464,281826,186572
1631106816178,21476,281794,186590
1631106816188,21482,281870,186573
1631106816198,21497,281854,186589
1631106816208,21505,281905,186581
1631106816218,21517,281916,186593
1631106816228,21528,281898,186595
1631106816238,21532,281915,186584
1631106816248,21557,281894,186599
1631106816258,21568,281939,186628
1631106816268,21572,281928,186617
1631106816278,21591,281966,186621
1631106816288,21589,281939,186606
1631106816298,21619,281964,186642
1631106816308,21625,282013,186609
1631106816318,21636,281987,186631
1631106816328,21650,282010,186624
1631106816338,21662,282039,186648
1631106816348,21666,282020,186650
1631106816358,21678,282043,186639
1631106816368,21696,282055,186650
1631106816378,21714,282077,186644
1631106816388,21720,282071,186650
1631106816398,21731,282051,186644
1631106816408,21745,282115,186649
1631106816418,21762,282102,186651
1631106816428,21763,282145,186668
1631106816438,21775,282174,186664
1631106816448,21790,282156,186684
1631106816458,21805,282177,186665
1631106816468,21820,282181,186692
1631106816478,21830,282170,186688
1631106816488,21847,282216,186700
1631106816498,21860,282241,186710
1631106816508,21875,282272,186710
1631106816518,21886,282255,186725
1631106816528,21886,282298,186754
1631106816538,21876,282297,186729
1631106816548,21851,282223,186708
1631106816558,21813,282226,186687
1631106816568,21773,282163,186678
1631106816578,21722,282125,186641
1631106816588,21664,282087,186661
1631106816598,21616,281982,186632
1631106816608,21578,281931,186620
1631106816618,21542,281885,186591
1631106816628,21496,281873,186601
1631106816638,21465,281782,186610
1631106816648,21433,281790,186567
1631106816658,21407,281749,186550
1631106816668,21382,281710,186557
1631106816678,21356,281713,186545
1631106816688,21332,281684,186539
1631106816698,21299,281664,186528
1631106816708,21275,281631,186503
1631106816718,21251,281613,186505
1631106816728,21235,281552,186505
1631106816738,21208,281551,186488
1631106816748,21198,281513,186490
1631106816758,21172,281482,186463
1631106816768,21158,281490,186487
1631106816778,21150,281477,186455
1631106816788,21145,281410,186458
1631106816798,21145,281480,186452
1631106816808,21137,281427,186455
1631106816818,21138,281418,186447
1631106816828,21130,281421,186454
1631106816838,21122,281382,186443
1631106816848,21121,281438,186461
1631106816858,21118,281399,186457
1631106816868,21108,281418,186451
1631106816878,21106,281388,186443
1631106816888,21105,281353,186442
1631106816898,21105,281362,186440
1631106816908,21086,281387,186423
1631106816918,21097,281365,186431
1631106816928,21099,281368,186425
1631106816938,21104,281354,186436
1631106816948,21110,281354,186434
1631106816958,21116,281369,186451
1631106816968,21118,281363,186427
1631106816978,21126,281374,186438
1631106816988,21131,281320,186437
1631106816998,21145,281383,186463
1631106817008,21148,281399,186435
1631106817018,21161,281409,186442
1631106817028,21167,281419,186445
1631106817038,21180,281417,186467
1631106817048,21189,281424,186461
1631106817058,21204,281429,186469
1631106817068,21203,281438,186446
1631106817078,21221,281409,186475
1631106817088,21238,281477,186480
1631106817098,21247,281485,186490
1631106817108,21256,281435,186484
1631106817118,21272,281486,186494
1631106817128,21284,281494,186491
1631106817138,21296,281498,186496
1631106817148,21309,281540,186491
1631106817158,21322,281531,186507
1631106817168,21337,281534,186502
1631106817178,21348,281592,186507
1631106817188,21358,281585,186514
1631106817198,21372,281556,186530
1631106817208,21389,281630,186523
1631106817218,21397,281643,186527
1631106817228,21414,281641,186531
1631106817238,21428,281636,186538
1631106817248,21438,281663,186556
1631106817258,21449,281666,186534
1631106817268,21466,281696,186549
1631106817278,21483,281720,186573
1631106817288,21501,281743,186587
1631106817298,21515,281753,186594
1631106817308,21530,281781,186581
1631106817318,21541,281762,186611
1631106817328,21555,281744,186584
1631106817338,21568,281824,186596
1631106817348,21586,281805,186604
1631106817358,21598,281841,186621
1631106817368,21618,281838,186629
1631106817378,21629,281878,186629
1631106817388,21647,281887,186651
1631106817398,21668,281912,186621
1631106817408,21672,281880,186668
1631106817418,21695,281917,186666
1631106817428,21706,281953,186666
1631106817438,21714,281981,186667
1631106817448,21732,281995,186657
1631106817458,21750,281984,186659
1631106817468,21762,282011,186690
1631106817478,21778,281972,186679
1631106817488,21792,282061,186678
1631106817498,21807,282068,186715
1631106817508,21818,282064,186688
1631106817518,21840,282059,186707
1631106817528,21851,282084,186698
1631106817538,21864,282103,186712
1631106817548,21891,282131,186715
1631106817558,21903,282145,186695
1631106817568,21920,282142,186695
1631106817578,21915,282200,186733
1631106817588,21946,282214,186724
1631106817598,21956,282180,186737
1631106817608,21974,282273,186743
1631106817618,21977,282285,186777
1631106817628,21984,282270,186766
1631106817638,21968,282284,186743
1631106817648,21936,282211,186738
1631106817658,21897,282172,186733
1631106817668,21855,282145,186696
1631106817678,21806,282072,186692
1631106817688,21748,282009,186696
1631106817698,21707,281929,186647
1631106817708,21663,281913,186650
1631106817718,21618,281899,186647
1631106817728,21595,281849,186616
1631106817738,21554,281817,186652
1631106817748,21523,281809,186598
1631106817758,21501,281767,186602
1631106817768,21478,281750,186609
1631106817778,21451,281716,186573
1631106817788,21425,281708,186579
1631106817798,21409,281654,186558
1631106817808,21375,281626,186566
1631106817818,21355,281617,186563
1631106817828,21325,281607,186539
1631106817838,21309,281556,186510
1631106817848,21290,281551,186531
1631106817858,21273,281488,186517
1631106817868,21259,281495,186542
1631106817878,21246,281518,186533
1631106817888,21235,281516,186498
1631106817898,21229,281517,186504
1631106817908,21233,281514,186499
1631106817918,21226,281486,186508
1631106817928,21221,281462,186520
1631106817938,21217,281502,186529
1631106817948,21205,281430,186487
1631106817958,21200,281439,186499
1631106817968,21193,281437,186504
1631106817978,21191,281419,186492
1631106817988,21187,281441,186497
1631106817998,21182,281427,186487
1631106818008,21185,281425,186490
1631106818018,21185,281437,186508
1631106818028,21186,281405,186510
1631106818038,21192,281409,186514
1631106818048,21200,281412,186513
1631106818058,21205,281432,186505
1631106818068,21204,281442,186510
1631106818078,21206,281397,186517
1631106818088,21215,281419,186521
1631106818098,21223,281430,186537
1631106818108,21229,281455,186542
1631106818118,21241,281433,186546
1631106818128,21251,281451,186571
1631106818138,21261,281445,186549
1631106818148,21268,281481,186545
1631106818158,21279,281521,186579
1631106818168,21293,281526,186566
1631106818178,21300,281525,186575
1631106818188,21319,281557,186608
1631106818198,21334,281568,186600
1631106818208,21338,281544,186580
1631106818218,21354,281570,186599
1631106818228,21366,281617,186602
1631106818238,21380,281641,186597
1631106818248,21388,281616,186611
1631106818258,21401,281627,186626
1631106818268,21412,281636,186614
1631106818278,21427,281638,186639
1631106818288,21438,281650,186639
1631106818298,21452,281640,186623
1631106818308,21465,281704,186624
1631106818318,21472,281675,186635
1631106818328,21491,281746,186654
1631106818338,21501,281725,186642
1631106818348,21521,281742,186634
1631106818358,21535,281746,186677
1631106818368,21545,281777,186658
1631106818378,21557,281814,186670
1631106818388,21571,281817,186656
1631106818398,21587,281836,186685
1631106818408,21603,281824,186677
1631106818418,21615,281862,186702
1631106818428,21629,281858,186703
1631106818438,21642,281903,186701
1631106818448,21662,281905,186687
1631106818458,21670,281933,186708
1631106818468,21684,281952,186720
1631106818478,21702,281973,186723
1631106818488,21714,281983,186724
1631106818498,21729,281957,186733
1631106818508,21751,281985,186742
1631106818518,21758,282023,186730
1631106818528,21769,282026,186727
1631106818538,21787,282078,186749
1631106818548,21800,282057,186769
1631106818558,21813,282067,186758
1631106818568,21832,282081,186758
1631106818578,21848,282124,186782
1631106818588,21859,282089,186763
1631106818598,21877,282121,186764
1631106818608,21886,282160,186770
1631106818618,21904,282158,186768
1631106818628,21916,282174,186774
1631106818638,21934,282190,186768
1631106818648,21939,282229,186786
1631106818658,21957,282238,186787
1631106818668,21961,282223,186790
1631106818678,21986,282259,186790
1631106818688,21994,282260,186803
1631106818698,22012,282319,186798
1631106818708,22022,282303,186828
1631106818718,22033,282316,186840
1631106818728,22025,282327,186839
1631106818738,22006,282308,186830
1631106818748,21984,282290,186808
1631106818758,21938,282228,186783
1631106818768,21904,282229,186790
1631106818778,21856,282192,186773
1631106818788,21810,282115,186738
1631106818798,21767,282065,186745
1631106818808,21729,282004,186741
1631106818818,21699,282014,186739
1631106818828,21678,281947,186734
1631106818838,21640,281903,186706
1631106818848,21606,281919,186702
1631106818858,21603,281884,186705
1631106818868,21565,281883,186686
1631106818878,21550,281879,186688
1631106818888,21524,281809,186685
1631106818898,21504,281807,186684
1631106818908,21483,281769,186665
1631106818918,21465,281773,186684
1631106818928,21445,281787,186668
1631106818938,21428,281743,186648
1631106818948,21411,281711,186652
1631106818958,21404,281737,186646
1631106818968,21395,281699,186645
1631106818978,21389,281710,186648
1631106818988,21387,281683,186650
1631106818998,21380,281717,186653
1631106819008,21385,281681,186661
1631106819018,21375,281656,186647
1631106819028,21370,281678,186627
1631106819038,21365,281645,186662
1631106819048,21363,281667,186647
1631106819058,21355,281664,186643
1631106819068,21346,281650,186629
1631106819078,21348,281654,186622
1631106819088,21344,281638,186641
1631106819098,21344,281628,186643
1631106819108,21345,281637,186638
1631106819118,21348,281652,186661
1631106819128,21346,281628,186653
1631106819138,21349,281627,186648
1631106819148,21355,281627,186644
1631106819158,21359,281632,186650
1631106819168,21367,281675,186643
1631106819178,21375,281633,186650
1631106819188,21386,281659,186650
1631106819198,21399,281688,186671
1631106819208,21401,281683,186652
1631106819218,21409,281650,186659
1631106819228,21420,281726,186659
1631106819238,21433,281694,186673
1631106819248,21440,281688,186677
1631106819258,21451,281721,186688
1631106819268,21466,281733,186679
1631106819278,21478,281737,186679
1631106819288,21490,281762,186708
1631106819298,21499,281784,186701
1631106819308,21509,281782,186679
1631106819318,21526,281811,186717
1631106819328,21522,281831,186729
1631106819338,21549,281826,186715
1631106819348,21557,281824,186725
1631106819358,21568,281812,186725
1631106819368,21585,281849,186697
1631106819378,21601,281843,186736
1631106819388,21609,281880,186736
1631106819398,21625,281885,186733
1631106819408,21638,281905,186750
1631106819418,21650,281918,186755
1631106819428,21665,281959,186733
1631106819438,21665,281937,186757
1631106819448,21683,281976,186750
1631106819458,21697,281958,186766
1631106819468,21708,281990,186762
1631106819478,21719,282035,186779
1631106819488,21741,282006,186770
1631106819498,21749,282056,186758
1631106819508,21761,282048,186782
1631106819518,21778,282064,186800
1631106819528,21795,282061,186781
1631106819538,21811,282096,186813
1631106819548,21823,282141,186819
1631106819558,21845,282126,186818
1631106819568,21854,282152,186819
1631106819578,21865,282169,186811
1631106819588,21883,282138,186809
1631106819598,21895,282197,186812
1631106819608,21914,282161,186837
1631106819618,21925,282196,186819
1631106819628,21939,282209,186837
1631106819638,21952,282236,186826
1631106819648,21970,282234,186847
1631106819658,21988,282247,186819
1631106819668,21997,282263,186865
1631106819678,22015,282281,186847
1631106819688,22026,282305,186853
1631106819698,22038,282313,186851
1631106819708,22051,282339,186843
1631106819718,22072,282354,186866
1631106819728,22084,282326,186868
1631106819738,22099,282350,186875
1631106819748,22113,282384,186880
1631106819758,22130,282373,186883
1631106819768,22145,282455,186901
1631106819778,22161,282465,186916
1631106819788,22168,282447,186891
1631106819798,22156,282505,186929
1631106819808,22165,282476,186904
1631106819818,22135,282442,186889
1631106819828,22091,282390,186886
1631106819838,22052,282337,186869
1631106819848,22025,282275,186832
1631106819858,21981,282226,186836
1631106819868,21935,282233,186808
1631106819878,21896,282160,186814
1631106819888,21865,282111,186807
1631106819898,21832,282095,186795
1631106819908,21808,282077,186780
1631106819918,21792,282065,186775
1631106819928,21768,282052,186783
1631106819938,21753,282000,186760
1631106819948,21732,282014,186742
1631106819958,21719,282005,186753
1631106819968,21695,281967,186740
1631106819978,21681,281959,186741
1631106819988,21670,281984,186726
1631106819998,21652,281899,186720
1631106820008,21641,281885,186715
1631106820018,21616,281881,186707
1631106820028,21615,281853,186723
1631106820038,21611,281932,186688
1631106820048,21603,281891,186724
1631106820058,21600,281897,186714
1631106820068,21598,281888,186718
1631106820078,21587,281887,186725
1631106820088,21587,281880,186715
1631106820098,21580,281885,186733
1631106820108,21571,281856,186715
1631106820118,21565,281842,186731
1631106820128,21571,281883,186721
1631106820138,21563,281868,186695
1631106820148,21555,281816,186680
1631106820158,21563,281816,186716
1631106820168,21558,281859,186709
1631106820178,21551,281856,186717
1631106820188,21555,281842,186738
1631106820198,21552,281855,186704
1631106820208,21563,281835,186709
1631106820218,21560,281838,186733
1631106820228,21566,281836,186710
1631106820238,21568,281870,186703
1631106820248,21578,281827,186712
1631106820258,21581,281854,186732
1631106820268,21584,281853,186719
1631106820278,21596,281858,186729
1631106820288,21601,281889,186717
1631106820298,21615,281866,186737
1631106820308,21615,281908,186721
1631106820318,21634,281913,186754
1631106820328,21634,281939,186767
1631106820338,21648,281947,186749
1631106820348,21657,281919,186768
1631106820358,21666,281975,186774
1631106820368,21683,281961,186788
1631106820378,21692,281982,186768
1631106820388,21701,281977,186769
1631106820398,21707,281997,186783
1631106820408,21723,282013,186787
1631106820418,21730,282038,186777
1631106820428,21740,282061,186790
1631106820438,21756,282058,186809
1631106820448,21766,282078,186819
1631106820458,21775,282077,186812
1631106820468,21802,282051,186828
1631106820478,21788,282120,186826
1631106820488,21818,282131,186819
1631106820498,21818,282138,186837
1631106820508,21834,282125,186848
1631106820518,21849,282160,186846
1631106820528,21857,282148,186847
1631106820538,21870,282204,186827
1631106820548,21883,282194,186860
1631106820558,21898,282235,186857
1631106820568,21905,282204,186874
1631106820578,21919,282284,186875
1631106820588,21929,282271,186903
1631106820598,21945,282293,186879
1631106820608,21955,282265,186881
1631106820618,21977,282285,186875
1631106820628,21989,282327,186884
1631106820638,21993,282362,186879
1631106820648,22012,282319,186877
1631106820658,22022,282386,186896
1631106820668,22034,282385,186905
1631106820678,22043,282389,186924
1631106820688,22058,282398,186900
1631106820698,22076,282409,186911
1631106820708,22086,282460,186924
1631106820718,22100,282438,186920
1631106820728,22120,282471,186903
1631106820738,22127,282470,186937
1631106820748,22140,282486,186931
1631106820758,22157,282537,186959
1631106820768,22168,282533,186970
1631106820778,22169,282593,186987
1631106820788,22152,282520,186955
1631106820798,22129,282483,186968
1631106820808,22102,282465,186953
1631106820818,22058,282409,186939
1631106820828,22018,282391,186909
1631106820838,21972,282344,186867
1631106820848,21933,282294,186869
1631106820858,21889,282226,186861
1631106820868,21852,282210,186842
1631106820878,21826,282166,186840
1631106820888,21791,282172,186830
1631106820898,21766,282113,186835
1631106820908,21747,282077,186823
1631106820918,21732,282047,186815
1631106820928,21710,282067,186805
1631106820938,21681,282045,186819
1631106820948,21666,281999,186796
1631106820958,21652,282026,186803
1631106820968,21629,281994,186778
1631106820978,21610,281964,186772
1631106820988,21596,281962,186762
1631106820998,21584,281886,186743
1631106821008,21575,281927,186766
1631106821018,21568,281888,186773
1631106821028,21562,281889,186746
1631106821038,21558,281876,186744
1631106821048,21555,281877,186722
1631106821058,21548,281859,186731
1631106821068,21542,281904,186753
1631106821078,21534,281836,186730
1631106821088,21529,281873,186734
1631106821098,21517,281856,186716
1631106821108,21519,281838,186709
1631106821118,21518,281832,186730
1631106821128,21507,281828,186740
1631106821138,21490,281801,186709
1631106821148,21500,281803,186738
1631106821158,21502,281834,186711
1631106821168,21503,281820,186703
1631106821178,21502,281811,186741
1631106821188,21504,281828,186718
1631106821198,21504,281823,186702
1631106821208,21512,281821,186720
1631106821218,21522,281796,186732
1631106821228,21525,281816,186724
1631106821238,21531,281830,186738
1631106821248,21540,281813,186717
1631106821258,21539,281863,186719
1631106821268,21548,281865,186736
1631106821278,21561,281870,186710
1631106821288,21577,281851,186752
1631106821298,21582,281874,186724
1631106821308,21591,281885,186723
1631106821318,21596,281924,186738
1631106821328,21606,281880,186732
1631106821338,21619,281945,186741
1631106821348,21633,281875,186738
1631106821358,21642,281916,186737
1631106821368,21651,281976,186738
1631106821378,21669,281969,186756
1631106821388,21674,281990,186752
1631106821398,21686,281948,186744
1631106821408,21704,282003,186760
1631106821418,21703,281983,186780
1631106821428,21716,282025,186775
1631106821438,21743,282003,186760
1631106821448,21752,282027,186771
1631106821458,21761,282058,186772
1631106821468,21779,282066,186785
1631106821478,21785,282094,186776
1631106821488,21799,282086,186787
1631106821498,21813,282126,186805
1631106821508,21826,282069,186804
1631106821518,21837,282111,186798
1631106821528,21853,282132,186799
1631106821538,21861,282132,186832
1631106821548,21881,282190,186814
1631106821558,21893,282181,186829
1631106821568,21904,282218,186838
1631106821578,21913,282179,186839
1631106821588,21939,282188,186822
1631106821598,21932,282228,186832
1631106821608,21967,282214,186826
1631106821618,21974,282229,186824
1631106821628,21982,282297,186826
1631106821638,21995,282294,186847
1631106821648,22011,282277,186849
1631106821658,22023,282321,186846
1631106821668,22038,282333,186837
1631106821678,22053,282352,186861
1631106821688,22059,282377,186866
1631106821698,22078,282341,186841
1631106821708,22091,282360,186865
1631106821718,22101,282426,186865
1631106821728,22118,282423,186883
1631106821738,22138,282428,186892
1631106821748,22153,282485,186898
1631106821758,22166,282473,186918
1631106821768,22177,282519,186928
1631106821778,22169,282542,186919
1631106821788,22161,282489,186908
1631106821798,22141,282452,186912
1631106821808,22108,282390,186888
1631106821818,22066,282381,186872
1631106821828,22018,282312,186848
1631106821838,21961,282263,186818
1631106821848,21916,282201,186837
1631106821858,21873,282137,186782
1631106821868,21828,282083,186799
1631106821878,21794,282068,186777
1631106821888,21760,282020,186770
1631106821898,21731,281960,186751
1631106821908,21701,281954,186745
1631106821918,21675,281965,186724
1631106821928,21649,281926,186712
1631106821938,21620,281918,186721
1631106821948,21606,281886,186710
1631106821958,21579,281825,186704
1631106821968,21553,281831,186710
1631106821978,21522,281800,186684
1631106821988,21500,281785,186681
1631106821998,21484,281768,186668
1631106822008,21464,281724,186683
1631106822018,21450,281697,186673
1631106822028,21440,281731,186660
1631106822038,21432,281726,186645
1631106822048,21426,281675,186672
1631106822058,21418,281687,186657
1631106822068,21420,281698,186636
1631106822078,21411,281649,186650
1631106822088,21409,281650,186646
1631106822098,21391,281655,186644
1631106822108,21380,281662,186621
1631106822118,21379,281635,186626
1631106822128,21371,281609,186622
1631106822138,21369,281620,186630
1631106822148,21367,281593,186626
1631106822158,21360,281618,186614
1631106822168,21363,281607,186621
1631106822178,21359,281603,186625
1631106822188,21356,281600,186610
1631106822198,21360,281588,186630
1631106822208,21366,281581,186629
1631106822218,21368,281578,186629
1631106822228,21379,281582,186624
1631106822238,21377,281590,186631
1631106822248,21379,281601,186613
1631106822258,21394,281605,186640
1631106822268,21403,281610,186648
1631106822278,21407,281663,186614
1631106822288,21419,281654,186628
1631106822298,21427,281647,186627
1631106822308,21437,281651,186651
1631106822318,21446,281673,186674
1631106822328,21460,281683,186676
1631106822338,21466,281703,186663
1631106822348,21484,281682,186648
1631106822358,21492,281661,186653
1631106822368,21504,281696,186678
1631106822378,21516,281725,186669
1631106822388,21529,281710,186671
1631106822398,21532,281747,186700
1631106822408,21555,281818,186674
1631106822418,21559,281794,186674
1631106822428,21573,281773,186666
1631106822438,21582,281813,186682
1631106822448,21597,281804,186680
1631106822458,21611,281824,186678
1631106822468,21627,281832,186706
1631106822478,21640,281865,186715
1631106822488,21651,281888,186716
1631106822498,21658,281902,186733
1631106822508,21677,281887,186724
1631106822518,21690,281926,186726
1631106822528,21703,281949,186742
1631106822538,21717,281946,186739
1631106822548,21725,281926,186743
1631106822558,21743,281954,186735
1631106822568,21751,281999,186748
1631106822578,21761,282000,186753
1631106822588,21782,282025,186764
1631106822598,21796,282045,186765
1631106822608,21806,282017,186762
1631106822618,21825,282050,186775
1631106822628,21838,282074,186756
1631106822638,21856,282049,186781
1631106822648,21866,282106,186780
1631106822658,21884,282067,186788
1631106822668,21899,282105,186767
1631106822678,21911,282171,186780
1631106822688,21922,282142,186804
1631106822698,21938,282168,186789
1631106822708,21950,282177,186799
1631106822718,21951,282221,186800
1631106822728,21986,282240,186814
1631106822738,22000,282214,186801
1631106822748,22012,282235,186813
1631106822758,22025,282279,186828
1631106822768,22037,282263,186826
1631106822778,22058,282310,186849
1631106822788,22067,282316,186868
1631106822798,22082,282346,186857
1631106822808,22098,282354,186883
1631106822818,22105,282415,186902
1631106822828,22111,282382,186893
1631106822838,22093,282382,186872
1631106822848,22062,282381,186851
1631106822858,22029,282324,186841
1631106822868,21988,282237,186823
1631106822878,21946,282159,186825
1631106822888,21888,282132,186766
1631106822898,21840,282074,186771
1631106822908,21794,282009,186772
1631106822918,21757,281969,186747
1631106822928,21720,281922,186739
1631106822938,21693,281903,186739
1631106822948,21668,281907,186715
1631106822958,21645,281856,186739
1631106822968,21618,281850,186732
1631106822978,21594,281842,186698
1631106822988,21572,281840,186706
1631106822998,21555,281789,186693
1631106823008,21528,281795,186674
1631106823018,21503,281729,186686
1631106823028,21482,281720,186667
1631106823038,21465,281677,186659
1631106823048,21443,281689,186643
1631106823058,21431,281625,186660
1631106823068,21416,281656,186652
1631106823078,21424,281664,186650
1631106823088,21406,281667,186650
1631106823098,21411,281637,186634
1631106823108,21403,281645,186636
1631106823118,21403,281650,186615
1631106823128,21396,281647,186638
1631106823138,21393,281623,186662
1631106823148,21383,281589,186633
1631106823158,21375,281613,186630
1631106823168,21373,281608,186637
1631106823178,21363,281600,186612
1631106823188,21367,281584,186649
1631106823198,21366,281562,186617
1631106823208,21363,281555,186621
1631106823218,21365,281622,186631
1631106823228,21361,281596,186626
1631106823238,21366,281571,186632
1631106823248,21367,281535,186605
1631106823258,21374,281605,186643
1631106823268,21378,281555,186634
1631106823278,21383,281592,186638
1631106823288,21396,281607,186647
1631106823298,21402,281625,186630
1631106823308,21410,281610,186655
1631106823318,21413,281622,186654
1631106823328,21426,281607,186658
1631106823338,21436,281644,186656
1631106823348,21446,281662,186638
1631106823358,21460,281662,186651
1631106823368,21462,281698,186661
1631106823378,21488,281729,186655
1631106823388,21488,281700,186644
1631106823398,21505,281733,186648
1631106823408,21519,281708,186684
1631106823418,21529,281750,186676
1631106823428,21535,281742,186687
1631106823438,21547,281754,186677
1631106823448,21564,281773,186692
1631106823458,21569,281788,186678
1631106823468,21590,281774,186696
1631106823478,21605,281829,186710
1631106823488,21620,281820,186699
1631106823498,21630,281873,186704
1631106823508,21641,281866,186699
1631106823518,21648,281881,186695
1631106823528,21667,281870,186733
1631106823538,21687,281875,186718
1631106823548,21704,281913,186732
1631106823558,21711,281969,186749
1631106823568,21723,281939,186733
1631106823578,21740,281948,186740
1631106823588,21749,281944,186734
1631106823598,21767,282014,186739
1631106823608,21781,281990,186753
1631106823618,21799,281996,186750
1631106823628,21814,282034,186761
1631106823638,21825,282032,186773
1631106823648,21846,282043,186768
1631106823658,21856,282079,186754
1631106823668,21871,282078,186775
1631106823678,21884,282128,186770
1631106823688,21898,282104,186790
1631106823698,21919,282169,186778
1631106823708,21911,282104,186777
1631106823718,21944,282186,186790
1631106823728,21962,282166,186799
1631106823738,21974,282217,186792
1631106823748,21989,282226,186801
1631106823758,22005,282248,186820
1631106823768,22018,282242,186832
1631106823778,22033,282241,186811
1631106823788,22049,282265,186822
1631106823798,22069,282277,186831
1631106823808,22075,282295,186817
1631106823818,22089,282327,186849
1631106823828,22110,282356,186850
1631106823838,22113,282356,186839
1631106823848,22140,282445,186855
1631106823858,22159,282403,186887
1631106823868,22164,282407,186875
1631106823878,22180,282431,186874
1631106823888,22156,282423,186871
1631106823898,22129,282385,186861
1631106823908,22104,282372,186835
1631106823918,22066,282274,186843
1631106823928,22024,282259,186817
1631106823938,21976,282217,186816
1631106823948,21935,282142,186775
1631106823958,21895,282109,186767
1631106823968,21864,282062,186762
1631106823978,21831,282051,186736
1631106823988,21804,282032,186744
1631106823998,21786,281997,186750
1631106824008,21759,282014,186744
1631106824018,21752,281973,186730
1631106824028,21727,281979,186722
1631106824038,21706,281978,186718
1631106824048,21701,281966,186728
1631106824058,21682,281949,186708
1631106824068,21667,281926,186689
1631106824078,21654,281883,186712
1631106824088,21639,281857,186687
1631106824098,21633,281868,186689
1631106824108,21624,281873,186692
1631106824118,21624,281909,186674
1631106824128,21620,281852,186686
1631106824138,21617,281871,186686
1631106824148,21617,281915,186700
1631106824158,21612,281864,186702
1631106824168,21608,281859,186688
1631106824178,21588,281863,186699
1631106824188,21593,281842,186704
1631106824198,21588,281803,186695
1631106824208,21583,281868,186700
1631106824218,21577,281836,186687
1631106824228,21573,281840,186652
1631106824238,21575,281799,186683
1631106824248,21572,281863,186677
1631106824258,21571,281840,186692
1631106824268,21576,281874,186699
1631106824278,21570,281825,186684
1631106824288,21580,281852,186681
1631106824298,21586,281853,186682
1631106824308,21587,281881,186685
1631106824318,21590,281861,186695
1631106824328,21600,281872,186709
1631106824338,21608,281867,186708
1631106824348,21613,281885,186699
1631106824358,21608,281885,186706
1631106824368,21634,281898,186704
1631106824378,21634,281884,186710
1631106824388,21642,281929,186711
1631106824398,21652,281909,186709
1631106824408,21661,281942,186713
1631106824418,21670,281981,186710
1631106824428,21683,281970,186741
1631106824438,21688,281987,186713
1631106824448,21704,282011,186744
1631106824458,21708,281966,186735
1631106824468,21716,282023,186760
1631106824478,21730,282031,186741
1631106824488,21739,282040,186763
1631106824498,21756,282077,186748
1631106824508,21764,282086,186767
1631106824518,21776,282097,186752
1631106824528,21786,282072,186760
1631106824538,21794,282118,186771
1631106824548,21809,282137,186778
1631106824558,21821,282153,186779
1631106824568,21833,282172,186795
1631106824578,21853,282154,186779
1631106824588,21858,282209,186804
1631106824598,21868,282215,186796
1631106824608,21884,282230,186796
1631106824618,21895,282228,186818
1631106824628,21908,282220,186809
1631106824638,21923,282240,186808
1631106824648,21931,282244,186834
1631106824658,21954,282268,186814
1631106824668,21957,282328,186811
1631106824678,21964,282316,186825
1631106824688,21979,282309,186825
1631106824698,21997,282324,186825
1631106824708,22003,282316,186839
1631106824718,22014,282383,186819
1631106824728,22028,282377,186828
1631106824738,22041,282412,186854
1631106824748,22052,282377,186857
1631106824758,22065,282412,186850
1631106824768,22081,282392,186874
1631106824778,22090,282470,186847
1631106824788,22105,282486,186860
1631106824798,22115,282501,186875
1631106824808,22131,282479,186857
1631106824818,22147,282501,186896
1631106824828,22168,282566,186908
1631106824838,22174,282570,186911
1631106824848,22159,282549,186900
1631106824858,22140,282545,186900
1631106824868,22116,282473,186879
1631106824878,22078,282437,186863
1631106824888,22037,282438,186841
1631106824898,21986,282346,186820
1631106824908,21941,282307,186796
1631106824918,21902,282263,186795
1631106824928,21854,282256,186799
1631106824938,21821,282173,186782
1631106824948,21788,282120,186754
1631106824958,21758,282102,186771
1631106824968,21733,282102,186755
1631106824978,21721,282122,186733
1631106824988,21686,282029,186716
1631106824998,21684,282027,186749
1631106825008,21650,282040,186724
1631106825018,21633,282005,186719
1631106825028,21604,281961,186736
1631106825038,21582,281970,186705
1631106825048,21572,281929,186679
1631106825058,21554,281898,186694
1631106825068,21539,281884,186675
1631106825078,21529,281892,186651
1631106825088,21521,281852,186655
1631106825098,21512,281872,186652
1631106825108,21504,281881,186651
1631106825118,21502,281836,186668
1631106825128,21503,281871,186668
1631106825138,21496,281865,186670
1631106825148,21481,281852,186647
1631106825158,21487,281862,186654
1631106825168,21475,281793,186656
1631106825178,21468,281794,186618
1631106825188,21458,281829,186620
1631106825198,21457,281776,186638
1631106825208,21457,281772,186628
1631106825218,21453,281786,186643
1631106825228,21452,281799,186635
1631106825238,21451,281791,186620
1631106825248,21451,281761,186608
1631106825258,21459,281764,186618
1631106825268,21461,281782,186605
1631106825278,21470,281775,186598
1631106825288,21476,281842,186630
1631106825298,21478,281782,186622
1631106825308,21488,281818,186622
1631106825318,21490,281840,186618
1631106825328,21505,281874,186626
1631106825338,21507,281858,186663
1631106825348,21518,281852,186658
1631106825358,21533,281829,186623
1631106825368,21541,281859,186635
1631106825378,21556,281824,186627
1631106825388,21561,281861,186647
1631106825398,21567,281913,186644
1631106825408,21583,281910,186638
1631106825418,21593,281894,186652
1631106825428,21600,281930,186623
1631106825438,21622,281945,186668
1631106825448,21629,281965,186646
1631106825458,21635,281943,186652
1631106825468,21652,281958,186658
1631106825478,21665,281972,186674
1631106825488,21666,282000,186668
1631106825498,21700,281994,186656
1631106825508,21713,281973,186675
1631106825518,21717,282038,186679
1631106825528,21727,282055,186688
1631106825538,21743,282108,186697
1631106825548,21758,282062,186694
1631106825558,21767,282055,186706
1631106825568,21783,282102,186677
1631106825578,21789,282113,186691
1631106825588,21805,282098,186696
1631106825598,21817,282120,186708
1631106825608,21832,282165,186722
1631106825618,21842,282162,186720
1631106825628,21858,282180,186724
1631106825638,21870,282168,186722
1631106825648,21880,282190,186724
1631106825658,21896,282227,186731
1631106825668,21919,282199,186740
1631106825678,21921,282235,186730
1631106825688,21942,282272,186735
1631106825698,21954,282266,186756
1631106825708,21962,282268,186709
1631106825718,21982,282289,186761
1631106825728,21995,282353,186749
1631106825738,22005,282287,186755
1631106825748,22021,282370,186755
1631106825758,22035,282350,186738
1631106825768,22048,282373,186759
1631106825778,22067,282399,186769
1631106825788,22076,282393,186782
1631106825798,22101,282434,186770
1631106825808,22109,282447,186798
1631106825818,22127,282472,186784
1631106825828,22135,282502,186811
1631106825838,22130,282466,186810
1631106825848,22123,282507,186829
1631106825858,22106,282443,186815
1631106825868,22068,282405,186781
1631106825878,22033,282390,186773
1631106825888,21977,282302,186725
1631106825898,21934,282275,186712
1631106825908,21883,282178,186712
1631106825918,21835,282174,186691
1631106825928,21793,282146,186691
1631106825938,21748,282076,186657
1631106825948,21728,282046,186672
1631106825958,21689,282033,186655
1631106825968,21675,282004,186648
1631106825978,21649,281955,186651
1631106825988,21624,281943,186640
1631106825998,21595,281908,186620
1631106826008,21565,281911,186608
1631106826018,21537,281881,186605
1631106826028,21520,281868,186588
1631106826038,21495,281829,186582
1631106826048,21471,281824,186573
1631106826058,21452,281731,186565
1631106826068,21426,281738,186559
1631106826078,21415,281719,186562
1631106826088,21401,281725,186538
1631106826098,21397,281700,186537
1631106826108,21382,281698,186533
1631106826118,21385,281709,186548
1631106826128,21375,281691,186548
1631106826138,21368,281685,186541
1631106826148,21370,281646,186540
1631106826158,21363,281656,186533
1631106826168,21350,281671,186540
1631106826178,21342,281673,186511
1631106826188,21331,281637,186524
1631106826198,21329,281653,186512
1631106826208,21331,281611,186515
1631106826218,21322,281596,186514
1631106826228,21321,281620,186506
1631106826238,21325,281603,186505
1631106826248,21323,281570,186498
1631106826258,21320,281613,186495
1631106826268,21325,281602,186505
1631106826278,21335,281589,186511
1631106826288,21337,281631,186486
1631106826298,21350,281590,186506
1631106826308,21348,281646,186524
1631106826318,21360,281673,186520
1631106826328,21360,281679,186523
1631106826338,21374,281658,186522
1631106826348,21381,281637,186546
1631106826358,21388,281672,186527
1631106826368,21404,281675,186534
1631106826378,21414,281685,186534
1631106826388,21422,281696,186538
1631106826398,21432,281714,186534
1631106826408,21448,281717,186559
1631106826418,21458,281728,186531
1631106826428,21465,281722,186552
1631106826438,21479,281749,186557
1631106826448,21486,281781,186552
1631106826458,21510,281791,186584
1631106826468,21512,281750,186565
1631106826478,21524,281757,186584
1631106826488,21538,281825,186589
1631106826498,21549,281837,186582
1631106826508,21568,281801,186580
1631106826518,21580,281882,186581
1631106826528,21589,281834,186586
1631106826538,21607,281850,186585
1631106826548,21618,281901,186601
1631106826558,21629,281907,186596
1631106826568,21643,281913,186605
1631106826578,21660,281879,186597
1631106826588,21674,281943,186616
1631106826598,21694,281932,186620
1631106826608,21703,281950,186622
1631106826618,21710,281971,186619
1631106826628,21726,282012,186630
1631106826638,21735,281990,186647
1631106826648,21760,282033,186649
1631106826658,21762,282096,186643
1631106826668,21778,282073,186655
1631106826678,21796,282073,186662
1631106826688,21809,282106,186646
1631106826698,21822,282123,186667
1631106826708,21839,282147,186655
1631106826718,21854,282151,186663
1631106826728,21864,282139,186683
1631106826738,21881,282182,186688
1631106826748,21889,282166,186698
1631106826758,21908,282216,186702
1631106826768,21925,282276,186700
1631106826778,21940,282240,186692
1631106826788,21950,282291,186703
1631106826798,21962,282254,186705
1631106826808,21979,282279,186708
1631106826818,21993,282294,186732
1631106826828,22009,282315,186739
1631106826838,22029,282362,186761
1631106826848,22038,282386,186788
1631106826858,22051,282429,186784
1631106826868,22050,282412,186798
1631106826878,22034,282386,186758
1631106826888,22000,282333,186757
1631106826898,21970,282307,186735
1631106826908,21922,282236,186708
1631106826918,21865,282174,186684
1631106826928,21823,282142,186699
1631106826938,21773,282078,186664
1631106826948,21734,281999,186634
1631106826958,21694,282020,186653
1631106826968,21658,281968,186647
1631106826978,21623,281945,186620
1631106826988,21593,281906,186594
1631106826998,21572,281845,186609
1631106827008,21549,281889,186593
1631106827018,21523,281865,186581
1631106827028,21507,281811,186579
1631106827038,21478,281830,186580
1631106827048,21456,281770,186563
1631106827058,21433,281767,186561
1631106827068,21411,281735,186561
1631106827078,21398,281691,186535
1631106827088,21365,281697,186544
1631106827098,21359,281674,186546
1631106827108,21355,281655,186534
1631106827118,21350,281653,186541
1631106827128,21341,281655,186518
1631106827138,21339,281643,186529
1631106827148,21329,281651,186521
1631106827158,21326,281632,186517
1631106827168,21323,281604,186525
1631106827178,21307,281591,186503
1631106827188,21310,281572,186488
1631106827198,21300,281589,186497
1631106827208,21293,281589,186487
1631106827218,21288,281548,186504
1631106827228,21285,281526,186488
1631106827238,21283,281582,186513
1631106827248,21284,281581,186512
1631106827258,21278,281534,186504
1631106827268,21282,281564,186501
1631106827278,21287,281530,186504
1631106827288,21292,281561,186489
1631106827298,21297,281563,186477
1631106827308,21298,281545,186488
1631106827318,21307,281592,186513
1631106827328,21309,281591,186531
1631106827338,21322,281584,186524
1631106827348,21330,281577,186514
1631106827358,21336,281597,186506
1631106827368,21347,281625,186530
1631106827378,21355,281651,186530
1631106827388,21365,281616,186553
1631106827398,21374,281649,186532
1631106827408,21385,281682,186533
1631106827418,21399,281665,186569
1631106827428,21410,281683,186559
1631106827438,21414,281720,186556
1631106827448,21420,281707,186572
1631106827458,21441,281725,186586
1631106827468,21448,281736,186560
1631106827478,21467,281721,186583
1631106827488,21478,281760,186595
1631106827498,21490,281767,186578
1631106827508,21504,281766,186597
1631106827518,21518,281791,186605
1631106827528,21531,281777,186606
1631106827538,21536,281786,186612
1631106827548,21555,281812,186606
1631106827558,21568,281850,186625
1631106827568,21574,281821,186623
1631106827578,21586,281855,186620
1631106827588,21615,281905,186631
1631106827598,21609,281930,186639
1631106827608,21633,281910,186644
1631106827618,21639,281939,186642
1631106827628,21655,281942,186648
1631106827638,21669,281922,186639
1631106827648,21681,281960,186656
1631106827658,21699,281996,186666
1631106827668,21709,282007,186657
1631106827678,21725,281994,186672
1631106827688,21731,282019,186673
1631106827698,21746,282043,186672
1631106827708,21755,282034,186669
1631106827718,21774,282018,186670
1631106827728,21784,282093,186683
1631106827738,21798,282098,186674
1631106827748,21822,282077,186702
1631106827758,21835,282127,186676
1631106827768,21841,282143,186697
1631106827778,21855,282162,186681
1631106827788,21872,282151,186684
1631106827798,21882,282140,186700
1631106827808,21898,282181,186688
1631106827818,21919,282246,186687
1631106827828,21930,282189,186700
1631106827838,21952,282225,186710
1631106827848,21960,282247,186711
1631106827858,21978,282269,186727
1631106827868,21983,282284,186732
1631106827878,21984,282287,186749
1631106827888,21978,282280,186719
1631106827898,21947,282251,186719
1631106827908,21915,282189,186693
1631106827918,21872,282114,186663
1631106827928,21817,282111,186620
1631106827938,21778,282031,186643
1631106827948,21734,281961,186614
1631106827958,21687,281951,186626
1631106827968,21651,281913,186590
1631106827978,21624,281895,186575
1631106827988,21593,281892,186589
1631106827998,21567,281840,186563
1631106828008,21543,281783,186545
1631106828018,21524,281813,186567
1631106828028,21501,281741,186562
1631106828038,21478,281748,186560
1631106828048,21467,281727,186528
1631106828058,21443,281678,186530
1631106828068,21420,281642,186524
1631106828078,21405,281613,186501
1631106828088,21387,281608,186503
1631106828098,21372,281596,186519
1631106828108,21361,281585,186494
1631106828118,21359,281584,186490
1631106828128,21352,281575,186482
1631106828138,21350,281566,186488
1631106828148,21350,281597,186490
1631106828158,21345,281576,186491
1631106828168,21341,281555,186468
1631106828178,21339,281550,186474
1631106828188,21330,281529,186485
1631106828198,21326,281544,186463
1631106828208,21327,281516,186466
1631106828218,21321,281505,186467
1631106828228,21314,281478,186463
1631106828238,21315,281483,186448
1631106828248,21313,281498,186456
1631106828258,21303,281424,186463
1631106828268,21316,281496,186460
1631106828278,21318,281476,186458
1631106828288,21326,281496,186456
1631106828298,21323,281519,186471
1631106828308,21333,281504,186479
1631106828318,21342,281528,186473
1631106828328,21349,281527,186491
1631106828338,21356,281515,186488
1631106828348,21364,281525,186482
1631106828358,21375,281546,186496
1631106828368,21384,281546,186518
1631106828378,21386,281582,186511
1631106828388,21404,281543,186525
1631106828398,21413,281552,186532
1631106828408,21432,281622,186530
1631106828418,21444,281602,186537
1631106828428,21456,281612,186533
1631106828438,21468,281603,186551
1631106828448,21481,281657,186578
1631106828458,21502,281637,186561
1631106828468,21510,281702,186569
1631106828478,21520,281671,186606
1631106828488,21534,281710,186601
1631106828498,21556,281709,186581
1631106828508,21563,281697,186593
1631106828518,21576,281738,186623
1631106828528,21587,281722,186608
1631106828538,21594,281781,186608
1631106828548,21618,281769,186645
1631106828558,21635,281757,186615
1631106828568,21647,281796,186632
1631106828578,21657,281781,186633
1631106828588,21671,281782,186646
1631106828598,21687,281814,186667
1631106828608,21695,281863,186673
1631106828618,21711,281817,186672
1631106828628,21721,281894,186695
1631106828638,21736,281894,186690
1631106828648,21749,281904,186688
1631106828658,21761,281912,186682
1631106828668,21772,281937,186716
1631106828678,21783,281938,186721
1631106828688,21802,281963,186701
1631106828698,21821,281981,186717
1631106828708,21817,281997,186729
1631106828718,21844,281987,186740
1631106828728,21853,281996,186736
1631106828738,21862,281998,186762
1631106828748,21873,281998,186752
1631106828758,21886,282005,186759
1631106828768,21896,282063,186739
1631106828778,21909,282032,186746
1631106828788,21922,282046,186754
1631106828798,21938,282081,186738
1631106828808,21950,282135,186756
1631106828818,21962,282136,186788
1631106828828,21970,282129,186784
1631106828838,21974,282149,186795
1631106828848,21967,282157,186778
1631106828858,21934,282119,186774
1631106828868,21912,282072,186724
1631106828878,21858,282049,186699
1631106828888,21822,281993,186668
1631106828898,21762,281972,186627
1631106828908,21717,281867,186620
1631106828918,21674,281830,186602
1631106828928,21631,281833,186573
1631106828938,21596,281784,186573
1631106828948,21569,281761,186562
1631106828958,21545,281707,186543
1631106828968,21524,281708,186530
1631106828978,21506,281671,186533
1631106828988,21481,281658,186501
1631106828998,21468,281626,186498
1631106829008,21453,281613,186513
1631106829018,21432,281578,186494
1631106829028,21430,281578,186458
1631106829038,21406,281539,186458
1631106829048,21392,281558,186464
1631106829058,21389,281510,186433
1631106829068,21384,281507,186435
1631106829078,21373,281470,186444
1631106829088,21375,281460,186416
1631106829098,21370,281485,186422
1631106829108,21368,281455,186400
1631106829118,21362,281444,186389
1631106829128,21349,281419,186386
1631106829138,21347,281416,186400
1631106829148,21342,281401,186389
1631106829158,21336,281451,186399
1631106829168,21332,281407,186387
1631106829178,21331,281430,186395
1631106829188,21326,281447,186410
1631106829198,21328,281426,186400
1631106829208,21321,281440,186414
1631106829218,21319,281400,186428
1631106829228,21332,281432,186422
1631106829238,21335,281425,186425
1631106829248,21335,281414,186415
1631106829258,21344,281435,186408
1631106829268,21347,281477,186421
1631106829278,21356,281428,186402
1631106829288,21354,281470,186421
1631106829298,21363,281434,186411
1631106829308,21370,281478,186423
1631106829318,21376,281457,186431
1631106829328,21386,281448,186419
1631106829338,21396,281486,186436
1631106829348,21404,281484,186414
1631106829358,21427,281499,186450
1631106829368,21427,281465,186429
1631106829378,21444,281488,186448
1631106829388,21452,281531,186462
1631106829398,21459,281528,186452
1631106829408,21466,281544,186468
1631106829418,21480,281547,186479
1631106829428,21495,281570,186471
1631106829438,21503,281556,186497
1631106829448,21520,281603,186469
1631106829458,21531,281609,186480
1631106829468,21544,281577,186504
1631106829478,21565,281635,186513
1631106829488,21573,281626,186503
1631106829498,21586,281619,186517
1631106829508,21597,281657,186515
1631106829518,21618,281646,186539
1631106829528,21628,281638,186542
1631106829538,21633,281647,186570
1631106829548,21651,281686,186545
1631106829558,21658,281668,186540
1631106829568,21672,281689,186542
1631106829578,21686,281733,186560
1631106829588,21699,281717,186571
1631106829598,21710,281726,186561
1631106829608,21721,281703,186547
1631106829618,21735,281751,186557
1631106829628,21749,281766,186554
1631106829638,21755,281771,186550
1631106829648,21773,281781,186565
1631106829658,21785,281838,186573
1631106829668,21799,281796,186578
1631106829678,21818,281805,186594
1631106829688,21813,281827,186575
1631106829698,21834,281818,186580
1631106829708,21848,281832,186598
1631106829718,21863,281811,186570
1631106829728,21879,281871,186585
1631106829738,21892,281902,186609
1631106829748,21912,281905,186620
1631106829758,21920,281906,186643
1631106829768,21912,281939,186623
1631106829778,21909,281912,186626
1631106829788,21888,281884,186604
1631106829798,21857,281830,186563
1631106829808,21813,281820,186549
1631106829818,21767,281712,186567
1631106829828,21723,281711,186525
1631106829838,21665,281641,186500
1631106829848,21633,281573,186482
1631106829858,21588,281569,186502
1631106829868,21539,281492,186469
1631106829878,21518,281467,186444
1631106829888,21486,281439,186446
1631106829898,21462,281370,186424
1631106829908,21435,281382,186416
1631106829918,21413,281352,186401
1631106829928,21388,281310,186386
1631106829938,21362,281275,186395
1631106829948,21340,281278,186379
1631106829958,21319,281184,186377
1631106829968,21294,281215,186377
1631106829978,21274,281192,186380
1631106829988,21256,281172,186347
1631106829998,21240,281123,186335
1631106830008,21223,281141,186340
1631106830018,21221,281085,186363
1631106830028,21210,281114,186360
1631106830038,21210,281065,186347
1631106830048,21210,281079,186324
1631106830058,21199,281086,186328
1631106830068,21196,281048,186337
1631106830078,21195,281050,186329
1631106830088,21179,281068,186323
1631106830098,21181,281055,186306
1631106830108,21175,281018,186318
1631106830118,21169,280978,186319
1631106830128,21161,281019,186310
1631106830138,21164,281014,186308
1631106830148,21149,281019,186279
1631106830158,21165,281024,186308
1631106830168,21153,281015,186295
1631106830178,21156,280979,186296
1631106830188,21157,281006,186287
1631106830198,21163,280993,186291
1631106830208,21172,281013,186288
1631106830218,21177,281002,186290
1631106830228,21188,281006,186311
1631106830238,21188,281017,186293
1631106830248,21199,281030,186289
1631106830258,21208,281029,186284
1631106830268,21212,280985,186302
1631106830278,21230,281031,186310
1631106830288,21237,281041,186304
1631106830298,21244,281031,186309
1631106830308,21256,281040,186307
1631106830318,21268,281093,186322
1631106830328,21276,281101,186321
1631106830338,21290,281094,186332
1631106830348,21307,281124,186345
1631106830358,21320,281099,186353
1631106830368,21326,281109,186323
1631106830378,21338,281167,186325
1631106830388,21352,281159,186353
1631106830398,21361,281173,186323
1631106830408,21371,281180,186340
1631106830418,21388,281191,186342
1631106830428,21401,281242,186351
1631106830438,21412,281245,186381
1631106830448,21424,281238,186340
1631106830458,21442,281262,186381
1631106830468,21451,281294,186370
1631106830478,21473,281279,186380
1631106830488,21476,281301,186398
1631106830498,21500,281294,186383
1631106830508,21512,281355,186403
1631106830518,21517,281326,186388
1631106830528,21538,281379,186410
1631106830538,21549,281348,186395
1631106830548,21562,281381,186399
1631106830558,21575,281409,186406
1631106830568,21593,281420,186428
1631106830578,21606,281412,186430
1631106830588,21623,281448,186420
1631106830598,21634,281489,186434
1631106830608,21650,281505,186433
1631106830618,21668,281496,186439
1631106830628,21677,281518,186455
1631106830638,21698,281523,186460
1631106830648,21710,281518,186477
1631106830658,21725,281584,186460
1631106830668,21737,281591,186475
1631106830678,21745,281605,186461
1631106830688,21761,281651,186469
1631106830698,21779,281627,186481
1631106830708,21795,281671,186496
1631106830718,21806,281675,186501
1631106830728,21825,281698,186520
1631106830738,21841,281763,186530
1631106830748,21850,281758,186542
1631106830758,21839,281746,186517
1631106830768,21823,281734,186512
1631106830778,21794,281724,186493
1631106830788,21754,281638,186471
1631106830798,21716,281579,186459
1631106830808,21653,281526,186443
1631106830818,21618,281480,186430
1631106830828,21573,281418,186417
1631106830838,21518,281427,186395
1631106830848,21497,281350,186412
1631106830858,21452,281313,186384
1631106830868,21424,281333,186372
1631106830878,21398,281261,186367
1631106830888,21373,281241,186350
1631106830898,21351,281227,186361
1631106830908,21328,281238,186355
1631106830918,21302,281189,186332
1631106830928,21283,281155,186332
1631106830938,21259,281133,186330
1631106830948,21234,281108,186324
1631106830958,21216,281084,186328
1631106830968,21199,281089,186307
1631106830978,21178,281037,186322
1631106830988,21184,281028,186304
1631106830998,21176,281004,186307
1631106831008,21171,281042,186307
1631106831018,21165,281016,186292
1631106831028,21156,281013,186304
1631106831038,21158,280996,186297
1631106831048,21148,281009,186289
1631106831058,21145,281026,186287
1631106831068,21138,280973,186260
1631106831078,21127,280977,186297
1631106831088,21126,280960,186291
1631106831098,21124,280957,186261
1631106831108,21122,280969,186283
1631106831118,21122,280991,186280
1631106831128,21116,280930,186267
1631106831138,21114,280940,186260
1631106831148,21111,280938,186256
1631106831158,21113,280962,186278
1631106831168,21128,280988,186286
1631106831178,21131,280954,186298
1631106831188,21137,280980,186300
1631106831198,21138,280969,186275
1631106831208,21147,280998,186300
1631106831218,21150,280996,186290
1631106831228,21162,280922,186276
1631106831238,21171,280985,186284
1631106831248,21185,280983,186303
1631106831258,21190,281003,186275
1631106831268,21202,281027,186310
1631106831278,21208,281015,186314
1631106831288,21224,281025,186299
1631106831298,21243,281066,186292
1631106831308,21249,281061,186319
1631106831318,21249,281068,186353
1631106831328,21266,281084,186318
1631106831338,21279,281102,186345
1631106831348,21288,281153,186339
1631106831358,21304,281126,186326
1631106831368,21314,281145,186337
1631106831378,21329,281179,186347
1631106831388,21339,281163,186357
1631106831398,21356,281173,186382
1631106831408,21367,281210,186395
1631106831418,21383,281232,186387
1631106831428,21394,281241,186395
1631106831438,21409,281266,186398
